# energy(eV) alpha
0.000000000000000000e+00 0.000000000000000000e+00
3.239999999999999825e-02 5.562926171462689862e-01
6.489999999999999936e-02 2.172814420293429194e+00
9.729999999999999760e-02 4.927745483993497544e+00
1.297999999999999987e-01 8.689798738872461570e+00
1.622000000000000108e-01 1.364153212328050024e+01
1.947000000000000119e-01 1.971372931926797634e+01
2.270999999999999963e-01 2.708171628066734726e+01
2.595999999999999974e-01 3.518166637560755561e+01
2.919999999999999818e-01 4.457144420855784261e+01
3.245000000000000107e-01 5.508330099700735616e+01
3.568999999999999950e-01 6.698878370867889487e+01
3.894000000000000239e-01 8.007235570341185849e+01
4.218000000000000083e-01 9.429090851347602609e+01
4.541999999999999926e-01 1.096622376444548763e+02
4.867000000000000215e-01 1.266254587407662342e+02
5.191000000000000059e-01 1.443214943934286509e+02
5.515999999999999792e-01 1.631904307061922168e+02
5.839999999999999636e-01 1.836714982174322301e+02
6.165000000000000480e-01 2.064306901598704087e+02
6.489000000000000323e-01 2.287908799614770601e+02
6.814000000000000057e-01 2.540628953866688562e+02
7.137999999999999901e-01 2.805881464674397989e+02
7.462999999999999634e-01 3.077986661824395469e+02
7.786999999999999478e-01 3.375199509985853297e+02
8.112000000000000322e-01 3.686124151035488694e+02
8.436000000000000165e-01 4.016986640019508172e+02
8.760000000000000009e-01 4.361525062924392273e+02
9.084999999999999742e-01 4.720173204551252866e+02
9.408999999999999586e-01 5.107823940181222611e+02
9.734000000000000430e-01 5.502306480761619696e+02
1.005800000000000027e+00 5.927176984452503348e+02
1.038300000000000001e+00 6.367513726719139413e+02
1.070699999999999985e+00 6.840113439633606731e+02
1.103199999999999958e+00 7.329122226433698870e+02
1.135599999999999943e+00 7.833102850455875341e+02
1.168099999999999916e+00 8.372941907592198731e+02
1.200499999999999901e+00 8.938618477280601837e+02
1.233000000000000096e+00 9.532174795155241327e+02
1.265400000000000080e+00 1.015276971621884400e+03
1.297800000000000065e+00 1.081261226876487626e+03
1.330300000000000038e+00 1.149172749176258321e+03
1.362700000000000022e+00 1.222218124485328417e+03
1.395199999999999996e+00 1.297320025199561542e+03
1.427599999999999980e+00 1.377820371513827922e+03
1.460099999999999953e+00 1.461689360231893488e+03
1.492499999999999938e+00 1.550016547898831050e+03
1.524999999999999911e+00 1.643137295701282028e+03
1.557399999999999896e+00 1.740935555659239981e+03
1.589900000000000091e+00 1.845076394458851155e+03
1.622300000000000075e+00 1.954167342946919916e+03
1.654800000000000049e+00 2.071281052024877681e+03
1.687200000000000033e+00 2.195011145668731842e+03
1.719600000000000017e+00 2.325667261600508027e+03
1.752099999999999991e+00 2.464964530007632675e+03
1.784499999999999975e+00 2.612837559321069421e+03
1.816999999999999948e+00 2.771297145750111213e+03
1.849399999999999933e+00 2.938771927908434463e+03
1.881899999999999906e+00 3.118815908090883568e+03
1.914299999999999891e+00 3.314515529935329141e+03
1.946800000000000086e+00 3.521933904667167099e+03
1.979200000000000070e+00 3.748840347662116528e+03
2.011699999999999822e+00 3.994512579536151407e+03
2.044099999999999806e+00 4.262216311168785069e+03
2.076499999999999790e+00 4.557630492374823007e+03
2.108999999999999986e+00 4.878243658120402870e+03
2.141399999999999970e+00 5.235865007856942611e+03
2.173900000000000166e+00 5.636914224863008712e+03
2.206300000000000150e+00 6.088737027081907399e+03
2.238799999999999901e+00 6.605020477686185586e+03
2.271199999999999886e+00 7.204072469045712751e+03
2.303700000000000081e+00 7.907686698440281361e+03
2.336100000000000065e+00 8.752973289583647784e+03
2.368599999999999817e+00 9.795924096466253104e+03
2.400999999999999801e+00 1.110574412622766795e+04
2.433499999999999996e+00 1.276324545898416909e+04
2.465899999999999981e+00 1.479020368014899941e+04
2.498299999999999965e+00 1.707642051014464596e+04
2.530800000000000161e+00 1.958312029733780946e+04
2.563200000000000145e+00 2.254941071924083735e+04
2.595699999999999896e+00 2.612417486344782446e+04
2.628099999999999881e+00 3.036297864477775511e+04
2.660600000000000076e+00 3.544999085672324145e+04
2.693000000000000060e+00 4.104170395767581795e+04
2.725499999999999812e+00 4.612510152065282455e+04
2.757899999999999796e+00 4.961312504145703133e+04
2.790399999999999991e+00 5.161269919985430170e+04
2.822799999999999976e+00 5.404830183584144106e+04
2.855300000000000171e+00 5.826027482598512870e+04
2.887700000000000156e+00 6.406929104118389660e+04
2.920100000000000140e+00 7.125667561305551499e+04
2.952599999999999891e+00 7.924168163653743977e+04
2.984999999999999876e+00 8.596317384258993843e+04
3.017500000000000071e+00 8.931752402143241488e+04
3.049900000000000055e+00 8.947740284612120013e+04
3.082399999999999807e+00 8.893439781310051330e+04
3.114799999999999791e+00 8.990034576842791284e+04
3.147299999999999986e+00 9.342668780091132794e+04
3.179699999999999971e+00 1.006707672821442975e+05
3.212200000000000166e+00 1.126301762080822227e+05
3.244600000000000151e+00 1.285792957467825181e+05
3.277099999999999902e+00 1.454034917915505939e+05
3.309499999999999886e+00 1.592027109015219321e+05
3.341899999999999871e+00 1.681554932581913017e+05
3.374400000000000066e+00 1.731433548512293783e+05
3.406800000000000050e+00 1.769953944538792421e+05
3.439299999999999802e+00 1.820292826378352183e+05
3.471699999999999786e+00 1.876658740740632056e+05
3.504199999999999982e+00 1.930164308813870593e+05
3.536599999999999966e+00 1.994688032764075324e+05
3.569100000000000161e+00 2.092824346275279240e+05
3.601500000000000146e+00 2.219713471999424801e+05
3.633999999999999897e+00 2.341711049212191137e+05
3.666399999999999881e+00 2.432735044717879791e+05
3.698900000000000077e+00 2.488012862589191063e+05
3.731300000000000061e+00 2.510917806550415116e+05
3.763700000000000045e+00 2.512711768730566837e+05
3.796199999999999797e+00 2.518467798164724663e+05
3.828599999999999781e+00 2.562285746995172522e+05
3.861099999999999977e+00 2.663284305670579197e+05
3.893499999999999961e+00 2.803582816092697321e+05
3.926000000000000156e+00 2.943395614171234192e+05
3.958400000000000141e+00 3.052238264742316096e+05
3.990899999999999892e+00 3.127758651110204519e+05
4.023299999999999876e+00 3.188716824033602024e+05
4.055799999999999628e+00 3.251895047401731135e+05
4.088199999999999612e+00 3.322469289748721640e+05
4.120700000000000252e+00 3.398131444555656053e+05
4.153100000000000236e+00 3.472320724500737851e+05
4.185500000000000220e+00 3.537678373711936292e+05
4.217999999999999972e+00 3.592607398030686891e+05
4.250399999999999956e+00 3.632661614603982307e+05
4.282899999999999707e+00 3.653069425299504655e+05
4.315299999999999692e+00 3.668928596887222375e+05
4.347800000000000331e+00 3.699630862405752414e+05
4.380200000000000315e+00 3.744715246841190965e+05
4.412700000000000067e+00 3.792808047661109595e+05
4.445100000000000051e+00 3.850099669419954880e+05
4.477599999999999802e+00 3.935038587040832499e+05
4.509999999999999787e+00 4.050481831458244123e+05
4.542500000000000426e+00 4.193052774076652131e+05
4.574900000000000411e+00 4.353627029461087659e+05
4.607300000000000395e+00 4.515532802136417013e+05
4.639800000000000146e+00 4.670485419364654808e+05
4.672200000000000131e+00 4.806258328470401466e+05
4.704699999999999882e+00 4.902055423783996957e+05
4.737099999999999866e+00 4.957299020042902557e+05
4.769599999999999618e+00 4.998402054170783958e+05
4.801999999999999602e+00 5.050001806694236002e+05
4.834500000000000242e+00 5.115509604992939858e+05
4.866900000000000226e+00 5.179571076588676078e+05
4.899399999999999977e+00 5.222738656377414591e+05
4.931799999999999962e+00 5.235939319146121852e+05
4.964299999999999713e+00 5.222333872978558647e+05
4.996699999999999697e+00 5.185086543586798944e+05
5.029099999999999682e+00 5.130704827225054032e+05
5.061600000000000321e+00 5.075021462673592614e+05
5.094000000000000306e+00 5.038559566399927717e+05
5.126500000000000057e+00 5.033883293001488200e+05
5.158900000000000041e+00 5.056366715518098208e+05
5.191399999999999793e+00 5.092391882811484393e+05
5.223799999999999777e+00 5.131353371957025956e+05
5.256300000000000416e+00 5.164527587497537606e+05
5.288700000000000401e+00 5.183726231283438974e+05
5.321200000000000152e+00 5.187770097824453842e+05
5.353600000000000136e+00 5.179991937174869818e+05
5.386000000000000121e+00 5.160919001177735045e+05
5.418499999999999872e+00 5.131583681616956019e+05
5.450899999999999856e+00 5.099155994636878022e+05
5.483399999999999608e+00 5.068980713175993296e+05
5.515799999999999592e+00 5.042292669080877677e+05
5.548300000000000232e+00 5.023440168795972713e+05
5.580700000000000216e+00 5.011126518286940991e+05
5.613199999999999967e+00 4.988893515265338356e+05
5.645599999999999952e+00 4.939171682058621664e+05
5.678099999999999703e+00 4.858982952838253696e+05
5.710499999999999687e+00 4.758311188478465774e+05
5.743000000000000327e+00 4.652616313727264060e+05
5.775400000000000311e+00 4.557148792644453351e+05
5.807800000000000296e+00 4.478374833816480823e+05
5.840300000000000047e+00 4.411940004694664385e+05
5.872700000000000031e+00 4.352597745697379578e+05
5.905199999999999783e+00 4.299648172074687318e+05
5.937599999999999767e+00 4.248956561018729117e+05
5.970100000000000406e+00 4.190936659883445827e+05
6.002500000000000391e+00 4.117264019851438934e+05
6.035000000000000142e+00 4.026331373037881567e+05
6.067400000000000126e+00 3.920384649299188750e+05
6.099899999999999878e+00 3.807103239949857816e+05
6.132299999999999862e+00 3.696635788373332471e+05
6.164799999999999613e+00 3.598713270865547238e+05
6.197199999999999598e+00 3.517940193085556384e+05
6.229599999999999582e+00 3.455126509842402302e+05
6.262100000000000222e+00 3.409298932550279424e+05
6.294500000000000206e+00 3.375271194231687114e+05
6.326999999999999957e+00 3.347260163996178890e+05
6.359399999999999942e+00 3.323899966376195080e+05
6.391899999999999693e+00 3.309236180161386728e+05
6.424299999999999677e+00 3.306488553262621863e+05
6.456800000000000317e+00 3.316158446247414104e+05
6.489200000000000301e+00 3.334733704342714627e+05
6.521700000000000053e+00 3.359274591005131369e+05
6.554100000000000037e+00 3.390445517969635548e+05
6.586599999999999788e+00 3.428181351180640049e+05
6.618999999999999773e+00 3.466175552164154942e+05
6.651399999999999757e+00 3.496848079520912142e+05
6.683900000000000396e+00 3.520026266505073872e+05
6.716300000000000381e+00 3.540534620971441618e+05
6.748800000000000132e+00 3.565889027041937807e+05
6.781200000000000117e+00 3.602468927562145982e+05
6.813699999999999868e+00 3.648173324790467159e+05
6.846099999999999852e+00 3.690501683744303300e+05
6.878599999999999604e+00 3.717069762053458253e+05
6.910999999999999588e+00 3.723327320727915503e+05
6.943500000000000227e+00 3.710948387833944871e+05
6.975900000000000212e+00 3.684346534919099649e+05
7.008399999999999963e+00 3.651554388736634864e+05
7.040799999999999947e+00 3.616406557162476238e+05
7.073199999999999932e+00 3.577010721269978094e+05
7.105699999999999683e+00 3.532167665768761071e+05
7.138099999999999667e+00 3.485166403866219334e+05
7.170600000000000307e+00 3.439140742944100057e+05
7.203000000000000291e+00 3.394277933744654292e+05
7.235500000000000043e+00 3.349671364518731134e+05
7.267900000000000027e+00 3.307107397961518727e+05
7.300399999999999778e+00 3.272467646009311429e+05
7.332799999999999763e+00 3.251596048955610604e+05
7.365300000000000402e+00 3.248256965183939319e+05
7.397700000000000387e+00 3.265271748815081082e+05
7.430200000000000138e+00 3.301288905691649998e+05
7.462600000000000122e+00 3.348033580046386924e+05
7.495000000000000107e+00 3.395951604501086986e+05
7.527499999999999858e+00 3.441571326739222277e+05
7.559899999999999842e+00 3.485848770935229259e+05
7.592399999999999594e+00 3.531154444018439390e+05
7.624799999999999578e+00 3.579314488187686657e+05
7.657300000000000217e+00 3.631118312727459124e+05
7.689700000000000202e+00 3.686476741269134218e+05
7.722199999999999953e+00 3.743208657631620299e+05
7.754599999999999937e+00 3.799914435541591956e+05
7.787099999999999689e+00 3.857433450723749702e+05
7.819499999999999673e+00 3.917569583732057363e+05
7.852000000000000313e+00 3.982348285240665427e+05
7.884400000000000297e+00 4.053734523845279473e+05
7.916800000000000281e+00 4.133573510767033440e+05
7.949300000000000033e+00 4.223486861075851484e+05
7.981700000000000017e+00 4.325211863090166007e+05
8.014200000000000657e+00 4.440324463823833503e+05
8.046599999999999753e+00 4.565823783943129820e+05
8.079100000000000392e+00 4.695390946994648548e+05
8.111499999999999488e+00 4.824284168816018500e+05
8.144000000000000128e+00 4.949658606099154567e+05
8.176399999999999224e+00 5.067129595464739832e+05
8.208899999999999864e+00 5.170814692000617506e+05
8.241300000000000736e+00 5.255299177647377364e+05
8.273799999999999599e+00 5.316856833512702724e+05
8.306200000000000472e+00 5.357549460057346150e+05
8.338599999999999568e+00 5.385932718652164331e+05
8.371100000000000207e+00 5.411804125718454598e+05
8.403499999999999304e+00 5.437917910948639037e+05
8.435999999999999943e+00 5.465244314487616066e+05
8.468400000000000816e+00 5.495094299133749446e+05
8.500899999999999679e+00 5.526449173934515566e+05
8.533300000000000551e+00 5.557412938430039212e+05
8.565799999999999415e+00 5.588564566668728366e+05
8.598200000000000287e+00 5.623723418777572224e+05
8.630699999999999150e+00 5.665424405168060912e+05
8.663100000000000023e+00 5.716168331792240497e+05
8.695499999999999119e+00 5.778495139757717261e+05
8.727999999999999758e+00 5.849943167753766757e+05
8.760400000000000631e+00 5.928960249969393481e+05
8.792899999999999494e+00 6.017290108806029893e+05
8.825300000000000367e+00 6.116573061045436189e+05
8.857799999999999230e+00 6.223217700437450549e+05
8.890200000000000102e+00 6.325402721709943144e+05
8.922700000000000742e+00 6.408696920359319774e+05
8.955099999999999838e+00 6.466358795207964722e+05
8.987600000000000477e+00 6.506032882928251056e+05
9.019999999999999574e+00 6.540922031578855822e+05
9.052500000000000213e+00 6.581461248809875688e+05
9.084899999999999309e+00 6.630631356763709337e+05
9.117300000000000182e+00 6.686556380528109148e+05
9.149800000000000821e+00 6.746734141635835404e+05
9.182199999999999918e+00 6.811056790315234102e+05
9.214700000000000557e+00 6.879413708308625501e+05
9.247099999999999653e+00 6.952564820885540685e+05
9.279600000000000293e+00 7.029781809943382395e+05
9.311999999999999389e+00 7.109750256964636501e+05
9.344500000000000028e+00 7.192115759471285855e+05
9.376899999999999125e+00 7.274825175958836917e+05
9.409399999999999764e+00 7.353823546795635484e+05
9.441800000000000637e+00 7.426127881434065057e+05
9.474299999999999500e+00 7.495176919526840793e+05
9.506700000000000372e+00 7.569457957858891459e+05
9.539099999999999469e+00 7.653553124869164312e+05
9.571600000000000108e+00 7.745278742414839799e+05
9.603999999999999204e+00 7.837583298564037541e+05
9.636499999999999844e+00 7.923853618739214726e+05
9.668900000000000716e+00 8.000188374176804209e+05
9.701399999999999579e+00 8.065579873359642224e+05
9.733800000000000452e+00 8.118437533959582215e+05
9.766299999999999315e+00 8.156640549909594702e+05
9.798700000000000188e+00 8.181278115962684387e+05
9.831200000000000827e+00 8.197681514308631886e+05
9.863599999999999923e+00 8.213052143157240935e+05
9.896100000000000563e+00 8.230625159834763035e+05
9.928499999999999659e+00 8.247194302853331901e+05
9.960900000000000531e+00 8.259356481599743711e+05
9.993399999999999395e+00 8.267894288173567038e+05
1.002580000000000027e+01 8.276846281617804198e+05
1.005829999999999913e+01 8.288882398889146280e+05
1.009070000000000000e+01 8.304043376762825064e+05
1.012320000000000064e+01 8.320827729458496906e+05
1.015559999999999974e+01 8.339589491681605577e+05
1.018810000000000038e+01 8.363979554743458284e+05
1.022049999999999947e+01 8.401685431388171855e+05
1.025300000000000011e+01 8.461058503607165767e+05
1.028539999999999921e+01 8.547774651035994757e+05
1.031789999999999985e+01 8.660501284451209940e+05
1.035030000000000072e+01 8.792346124381809495e+05
1.038269999999999982e+01 8.937922375481789932e+05
1.041520000000000046e+01 9.096465483032780467e+05
1.044759999999999955e+01 9.268589112965553068e+05
1.048010000000000019e+01 9.448696819919424597e+05
1.051249999999999929e+01 9.618812966409353539e+05
1.054499999999999993e+01 9.756633453284441493e+05
1.057740000000000080e+01 9.848969161217551446e+05
1.060989999999999966e+01 9.899405049045757623e+05
1.064230000000000054e+01 9.923550959969339892e+05
1.067479999999999940e+01 9.942943147385584889e+05
1.070720000000000027e+01 9.976131648574756691e+05
1.073969999999999914e+01 1.003269970334214508e+06
1.077210000000000001e+01 1.011010703094633180e+06
1.080450000000000088e+01 1.020012673362222966e+06
1.083699999999999974e+01 1.028947031178512378e+06
1.086940000000000062e+01 1.036611682133284397e+06
1.090189999999999948e+01 1.042855018522700644e+06
1.093430000000000035e+01 1.047911872323475778e+06
1.096679999999999922e+01 1.051416319263533922e+06
1.099920000000000009e+01 1.052780089462706354e+06
1.103170000000000073e+01 1.052063149094547844e+06
1.106409999999999982e+01 1.049864372520211851e+06
1.109660000000000046e+01 1.046938490228988463e+06
1.112899999999999956e+01 1.044210447579186526e+06
1.116150000000000020e+01 1.042557283691999502e+06
1.119389999999999930e+01 1.041836723243692890e+06
1.122630000000000017e+01 1.041357629118159763e+06
1.125880000000000081e+01 1.040672562610642170e+06
1.129119999999999990e+01 1.039732637160236249e+06
1.132370000000000054e+01 1.038515785235267365e+06
1.135609999999999964e+01 1.036657774778313469e+06
1.138860000000000028e+01 1.034072155671431334e+06
1.142099999999999937e+01 1.031384225956214126e+06
1.145350000000000001e+01 1.029600247752421885e+06
1.148590000000000089e+01 1.029705012485296698e+06
1.151839999999999975e+01 1.032444403649577289e+06
1.155080000000000062e+01 1.037888316100882366e+06
1.158329999999999949e+01 1.044842183596511371e+06
1.161570000000000036e+01 1.051099364199894713e+06
1.164809999999999945e+01 1.055122153311475646e+06
1.168060000000000009e+01 1.056986701869544107e+06
1.171299999999999919e+01 1.057670545438061701e+06
1.174549999999999983e+01 1.057867527036461513e+06
1.177790000000000070e+01 1.057307017381427344e+06
1.181039999999999957e+01 1.055753584452752955e+06
1.184280000000000044e+01 1.053480687290494330e+06
1.187529999999999930e+01 1.050942807818029309e+06
1.190770000000000017e+01 1.048726455544224707e+06
1.194020000000000081e+01 1.047589069616487366e+06
1.197259999999999991e+01 1.048102256406703731e+06
1.200500000000000078e+01 1.050664710936981020e+06
1.203749999999999964e+01 1.055339266919976799e+06
1.206990000000000052e+01 1.061102573945854092e+06
1.210239999999999938e+01 1.066697627179277828e+06
1.213480000000000025e+01 1.071802855179980863e+06
1.216729999999999912e+01 1.076650880706904922e+06
1.219969999999999999e+01 1.081596214009261690e+06
1.223220000000000063e+01 1.086858595656707650e+06
1.226459999999999972e+01 1.092312415748684667e+06
1.229710000000000036e+01 1.097920453169634100e+06
1.232949999999999946e+01 1.103984646045746049e+06
1.236200000000000010e+01 1.110490076226463774e+06
1.239439999999999920e+01 1.116778514349999605e+06
1.242680000000000007e+01 1.122034318912614370e+06
1.245930000000000071e+01 1.125592668636360206e+06
1.249169999999999980e+01 1.127366392202950316e+06
1.252420000000000044e+01 1.127785222426068503e+06
1.255659999999999954e+01 1.127303804485087749e+06
1.258910000000000018e+01 1.126496372391469777e+06
1.262149999999999928e+01 1.125347087562990375e+06
1.265399999999999991e+01 1.123148210217188345e+06
1.268640000000000079e+01 1.119786486144233728e+06
1.271889999999999965e+01 1.115617930284926901e+06
1.275130000000000052e+01 1.110939226329017663e+06
1.278379999999999939e+01 1.106302137192154769e+06
1.281620000000000026e+01 1.102688363972492982e+06
1.284859999999999935e+01 1.100997272015033755e+06
1.288109999999999999e+01 1.101851542179307900e+06
1.291350000000000087e+01 1.105519341784998775e+06
