# energy(eV) alpha
0.000000000000000000e+00 0.000000000000000000e+00
3.769999999999999740e-02 8.656140592707685100e-01
7.549999999999999767e-02 3.466828645928819785e+00
1.131999999999999951e-01 8.084773284197257937e+00
1.509999999999999953e-01 1.424872598586686401e+01
1.887000000000000066e-01 2.213293941899044270e+01
2.265000000000000069e-01 3.233412691267862016e+01
2.641999999999999904e-01 4.376477480090336769e+01
3.019999999999999907e-01 5.770373917401723673e+01
3.397000000000000020e-01 7.266846080736227975e+01
3.775000000000000022e-01 9.032986040505223002e+01
4.152000000000000135e-01 1.098683729358505161e+02
4.530000000000000138e-01 1.313290118024126514e+02
4.907000000000000250e-01 1.546497977140764135e+02
5.284999999999999698e-01 1.812277181328520896e+02
5.662000000000000366e-01 2.098375327748200050e+02
6.039999999999999813e-01 2.390075188272028299e+02
6.417000000000000481e-01 2.732496461395654705e+02
6.794999999999999929e-01 3.080405250072006993e+02
7.171999999999999487e-01 3.466261895191152007e+02
7.550000000000000044e-01 3.874646679656481751e+02
7.926999999999999602e-01 4.304389665802329432e+02
8.305000000000000160e-01 4.777397438636887728e+02
8.681999999999999718e-01 5.273274690108841014e+02
9.060000000000000275e-01 5.793038222235306876e+02
9.436999999999999833e-01 6.358995635657403227e+02
9.815000000000000391e-01 6.974949356086118541e+02
1.019200000000000106e+00 7.616568555932095705e+02
1.056999999999999940e+00 8.311460932141432068e+02
1.094700000000000006e+00 9.060556146141601630e+02
1.132500000000000062e+00 9.839622928573637637e+02
1.170199999999999907e+00 1.067570802481898681e+03
1.207899999999999974e+00 1.157197050341533213e+03
1.245700000000000029e+00 1.253170436349915462e+03
1.283400000000000096e+00 1.358684751611716365e+03
1.321199999999999930e+00 1.467886316929055283e+03
1.358899999999999997e+00 1.587200223842788091e+03
1.396700000000000053e+00 1.717313917549044390e+03
1.434399999999999897e+00 1.854888541735534545e+03
1.472199999999999953e+00 2.007578933180772083e+03
1.509900000000000020e+00 2.172066702718260331e+03
1.547700000000000076e+00 2.352784889140321866e+03
1.585399999999999920e+00 2.550036962217491691e+03
1.623199999999999976e+00 2.768624147360418647e+03
1.660900000000000043e+00 3.013027539524282474e+03
1.698700000000000099e+00 3.284521858298365714e+03
1.736399999999999944e+00 3.591943685632192683e+03
1.774199999999999999e+00 3.945407829623631187e+03
1.811900000000000066e+00 4.354727370042214716e+03
1.849699999999999900e+00 4.835277807749529529e+03
1.887399999999999967e+00 5.420075124918554138e+03
1.925200000000000022e+00 6.135523779287407706e+03
1.962900000000000089e+00 7.056804601839776296e+03
2.000700000000000145e+00 8.274651057294222483e+03
2.038400000000000212e+00 9.967227382823944936e+03
2.076200000000000045e+00 1.239332240403072137e+04
2.113900000000000112e+00 1.586124331673256165e+04
2.151699999999999946e+00 2.016694772119084155e+04
2.189400000000000013e+00 2.344560763514269274e+04
2.227199999999999847e+00 2.377003025472355876e+04
2.264899999999999913e+00 2.284760988841301514e+04
2.302700000000000191e+00 2.310213281536963405e+04
2.340399999999999814e+00 2.550490862795108114e+04
2.378200000000000092e+00 3.064256531144376277e+04
2.415900000000000158e+00 3.931460590920620598e+04
2.453599999999999781e+00 5.154817973772793630e+04
2.491400000000000059e+00 6.335152206096895679e+04
2.529100000000000126e+00 6.700461471138126217e+04
2.566899999999999959e+00 6.096727088229299261e+04
2.604600000000000026e+00 5.257268035791807779e+04
2.642399999999999860e+00 4.778243099331928534e+04
2.680099999999999927e+00 4.798374268242761900e+04
2.717900000000000205e+00 5.342608347180379496e+04
2.755599999999999827e+00 6.454576764014799119e+04
2.793400000000000105e+00 8.014489532677063835e+04
2.831100000000000172e+00 9.332324102839872648e+04
2.868900000000000006e+00 9.736583212467560952e+04
2.906600000000000072e+00 9.899200404671469005e+04
2.944399999999999906e+00 1.051717328762908292e+05
2.982099999999999973e+00 1.099527308521621308e+05
3.019899999999999807e+00 1.050709855155588593e+05
3.057599999999999874e+00 9.680034348665898142e+04
3.095400000000000151e+00 9.493630445905047236e+04
3.133100000000000218e+00 1.031684558123256138e+05
3.170900000000000052e+00 1.228655829364099336e+05
3.208600000000000119e+00 1.547346410824402701e+05
3.246399999999999952e+00 1.964771631704517058e+05
3.284100000000000019e+00 2.325598820012931537e+05
3.321899999999999853e+00 2.377963344577679527e+05
3.359599999999999920e+00 2.172442664194960089e+05
3.397400000000000198e+00 1.950194762045747484e+05
3.435099999999999820e+00 1.813988070684183331e+05
3.472900000000000098e+00 1.806252516586988058e+05
3.510600000000000165e+00 1.942661543845375127e+05
3.548399999999999999e+00 2.189012346851326001e+05
3.586100000000000065e+00 2.454469658204660809e+05
3.623800000000000132e+00 2.608990858580452332e+05
3.661599999999999966e+00 2.692761008563970681e+05
3.699300000000000033e+00 2.769172767981630750e+05
3.737099999999999866e+00 2.753176076988972491e+05
3.774799999999999933e+00 2.609209969738499494e+05
3.812600000000000211e+00 2.345091897405404015e+05
3.850299999999999834e+00 2.090255819349741505e+05
3.888100000000000112e+00 1.999209174837122846e+05
3.925800000000000178e+00 2.124235936416304903e+05
3.963600000000000012e+00 2.457711510217954346e+05
4.001299999999999635e+00 2.922863375886700815e+05
4.039100000000000357e+00 3.407461914678200847e+05
4.076800000000000423e+00 3.789004396580993198e+05
4.114600000000000257e+00 3.871547059873265098e+05
4.152300000000000324e+00 3.731379869043478393e+05
4.190100000000000158e+00 3.574935860347432317e+05
4.227800000000000225e+00 3.428342090094424202e+05
4.265600000000000058e+00 3.364394188658051426e+05
4.303300000000000125e+00 3.443391278841716121e+05
4.341099999999999959e+00 3.636972479753235239e+05
4.378800000000000026e+00 3.873494052587667247e+05
4.416599999999999859e+00 4.028910815842582961e+05
4.454299999999999926e+00 4.120414142284144182e+05
4.492099999999999760e+00 4.223634387733913027e+05
4.529799999999999827e+00 4.254980072578373365e+05
4.567599999999999660e+00 4.117964079772822442e+05
4.605299999999999727e+00 3.896761574570080847e+05
4.643099999999999561e+00 3.698520705740372650e+05
4.680799999999999628e+00 3.572842557229037629e+05
4.718600000000000350e+00 3.614064134446515236e+05
4.756300000000000416e+00 3.924964528928081272e+05
4.793999999999999595e+00 4.474128963323633652e+05
4.831800000000000317e+00 5.014797075156995561e+05
4.869500000000000384e+00 5.263607897740057670e+05
4.907300000000000217e+00 5.239563215341399773e+05
4.945000000000000284e+00 5.100474277483163169e+05
4.982800000000000118e+00 5.031429329094565473e+05
5.020500000000000185e+00 5.131638751053042361e+05
5.058300000000000018e+00 5.315485899078577058e+05
5.096000000000000085e+00 5.492433025666280882e+05
5.133799999999999919e+00 5.553991518452059245e+05
5.171499999999999986e+00 5.519813374294432579e+05
5.209299999999999820e+00 5.460595662872536341e+05
5.246999999999999886e+00 5.323829232163591078e+05
5.284799999999999720e+00 5.125841834810947184e+05
5.322499999999999787e+00 4.921559401893829927e+05
5.360299999999999621e+00 4.792156483528448152e+05
5.397999999999999687e+00 4.840135045484533184e+05
5.435800000000000409e+00 5.006513183129713289e+05
5.473499999999999588e+00 5.113931407023600768e+05
5.511300000000000310e+00 5.135768930606029462e+05
5.549000000000000377e+00 5.152776835718321963e+05
5.586800000000000210e+00 5.154434860423625214e+05
5.624500000000000277e+00 5.100913032586102490e+05
5.662300000000000111e+00 5.022753592432460282e+05
5.700000000000000178e+00 4.977026894822468166e+05
5.737800000000000011e+00 4.980885533967402298e+05
5.775500000000000078e+00 5.049157919041248970e+05
5.813299999999999912e+00 5.143202676190246129e+05
5.850999999999999979e+00 5.210608771494228859e+05
5.888799999999999812e+00 5.231084502316169674e+05
5.926499999999999879e+00 5.259216859148296062e+05
5.964299999999999713e+00 5.387793861121534137e+05
6.001999999999999780e+00 5.605520202046142658e+05
6.039699999999999847e+00 5.810393930515670218e+05
6.077499999999999680e+00 5.888417605620739050e+05
6.115199999999999747e+00 5.820510454831488896e+05
6.152999999999999581e+00 5.651991961302238051e+05
6.190699999999999648e+00 5.379692878056252375e+05
6.228500000000000369e+00 5.030576717227912741e+05
6.266200000000000436e+00 4.626416113679747796e+05
6.304000000000000270e+00 4.171692670011471491e+05
6.341700000000000337e+00 3.756463396324964124e+05
6.379500000000000171e+00 3.451347522539925412e+05
6.417200000000000237e+00 3.256944903144236305e+05
6.455000000000000071e+00 3.170168625483099604e+05
6.492700000000000138e+00 3.190443502771914937e+05
6.530499999999999972e+00 3.294174924525732640e+05
6.568200000000000038e+00 3.414447894778136397e+05
6.605999999999999872e+00 3.498468887660278124e+05
6.643699999999999939e+00 3.534797272972468636e+05
6.681499999999999773e+00 3.501657891171082738e+05
6.719199999999999839e+00 3.436587854414086905e+05
6.756999999999999673e+00 3.432817217121440335e+05
6.794699999999999740e+00 3.538398439483370748e+05
6.832499999999999574e+00 3.710898428865291644e+05
6.870199999999999640e+00 3.846500982060500537e+05
6.908000000000000362e+00 3.901469230561963632e+05
6.945700000000000429e+00 3.889448949375478551e+05
6.983500000000000263e+00 3.846576102102958248e+05
7.021200000000000330e+00 3.813675704455539817e+05
7.059000000000000163e+00 3.792491952073547291e+05
7.096700000000000230e+00 3.808521183050896507e+05
7.134500000000000064e+00 3.896870878609209321e+05
7.172200000000000131e+00 4.066478608682680060e+05
7.209900000000000198e+00 4.308141155980548356e+05
7.247700000000000031e+00 4.591588405864215456e+05
7.285400000000000098e+00 4.860110279828495695e+05
7.323199999999999932e+00 5.083012940260753385e+05
7.360899999999999999e+00 5.239971278438276495e+05
7.398699999999999832e+00 5.314904682034977013e+05
7.436399999999999899e+00 5.340332656505567720e+05
7.474199999999999733e+00 5.362224167945330264e+05
7.511899999999999800e+00 5.385872481282752706e+05
7.549699999999999633e+00 5.415727752763346070e+05
7.587399999999999700e+00 5.501847249029489467e+05
7.625200000000000422e+00 5.683279726526278537e+05
7.662899999999999601e+00 5.924908724939732347e+05
7.700700000000000323e+00 6.132607714146970538e+05
7.738400000000000389e+00 6.270598035982451402e+05
7.776200000000000223e+00 6.374140631251448067e+05
7.813900000000000290e+00 6.444410638038723264e+05
7.851700000000000124e+00 6.435220203319519060e+05
7.889400000000000190e+00 6.370631660772317555e+05
7.927200000000000024e+00 6.337825003532211995e+05
7.964900000000000091e+00 6.397875394198641879e+05
8.002700000000000813e+00 6.542132409821860492e+05
8.040399999999999991e+00 6.672742746521253139e+05
8.078200000000000713e+00 6.707946542158459779e+05
8.115899999999999892e+00 6.667834674523167778e+05
8.153700000000000614e+00 6.588649208056015195e+05
8.191399999999999793e+00 6.486649806238808669e+05
8.229200000000000514e+00 6.442294751077382825e+05
8.266899999999999693e+00 6.501230639876093483e+05
8.304700000000000415e+00 6.582759217254028190e+05
8.342399999999999594e+00 6.593925882792620687e+05
8.380200000000000315e+00 6.511134470764057478e+05
8.417899999999999494e+00 6.389258037629669998e+05
8.455600000000000449e+00 6.301870675845642108e+05
8.493399999999999395e+00 6.263926963270496344e+05
8.531100000000000350e+00 6.248921311145874206e+05
8.568899999999999295e+00 6.230516876644740114e+05
8.606600000000000250e+00 6.215757466501893941e+05
8.644399999999999196e+00 6.245903857542836340e+05
8.682100000000000151e+00 6.337574271919274470e+05
8.719900000000000873e+00 6.453349538416110445e+05
8.757600000000000051e+00 6.531999054608863080e+05
8.795400000000000773e+00 6.585265164027080173e+05
8.833099999999999952e+00 6.665455844822500367e+05
8.870900000000000674e+00 6.761169869371657260e+05
8.908599999999999852e+00 6.830390660038391361e+05
8.946400000000000574e+00 6.854820989012350328e+05
8.984099999999999753e+00 6.856022029155441560e+05
9.021900000000000475e+00 6.882025437996038236e+05
9.059599999999999653e+00 6.966738695412593661e+05
9.097400000000000375e+00 7.098642371963476762e+05
9.135099999999999554e+00 7.233717225409498205e+05
9.172900000000000276e+00 7.357488243745068321e+05
9.210599999999999454e+00 7.451924902258648071e+05
9.248400000000000176e+00 7.488064081157859182e+05
9.286099999999999355e+00 7.452818898614770733e+05
9.323900000000000077e+00 7.354957211601888994e+05
9.361599999999999255e+00 7.203637940038690576e+05
9.399399999999999977e+00 7.000633829789687879e+05
9.437099999999999156e+00 6.747557252812514780e+05
9.474899999999999878e+00 6.454980584606248885e+05
9.512600000000000833e+00 6.158797015360401710e+05
9.550399999999999778e+00 5.893893952865321189e+05
9.588100000000000733e+00 5.682174545828544069e+05
9.625799999999999912e+00 5.563809898063779110e+05
9.663600000000000634e+00 5.548219003031121101e+05
9.701299999999999812e+00 5.602443719855136005e+05
9.739100000000000534e+00 5.726287141938239802e+05
9.776799999999999713e+00 5.929282880921870237e+05
9.814600000000000435e+00 6.160195335714975372e+05
9.852299999999999613e+00 6.334648583663185127e+05
9.890100000000000335e+00 6.423162406730090734e+05
9.927799999999999514e+00 6.425785840706485324e+05
9.965600000000000236e+00 6.339622835511033190e+05
1.000329999999999941e+01 6.195793736882159719e+05
1.004110000000000014e+01 6.050191236171124037e+05
1.007879999999999932e+01 5.955886609213225311e+05
1.011660000000000004e+01 5.927980915613197722e+05
1.015429999999999922e+01 5.928825729766638251e+05
1.019209999999999994e+01 5.904280968462465098e+05
1.022979999999999912e+01 5.852634003375114407e+05
1.026759999999999984e+01 5.782582730608175043e+05
1.030530000000000079e+01 5.681995095660570078e+05
1.034309999999999974e+01 5.579524118285744917e+05
1.038080000000000069e+01 5.521198721272302791e+05
1.041859999999999964e+01 5.523442049509178614e+05
1.045630000000000059e+01 5.581520678945111576e+05
1.049409999999999954e+01 5.680276883433983894e+05
1.053180000000000049e+01 5.803406625488385325e+05
1.056959999999999944e+01 5.956633440338544315e+05
1.060730000000000040e+01 6.156160733879635809e+05
1.064509999999999934e+01 6.417045180581090972e+05
1.068280000000000030e+01 6.716166171846605139e+05
1.072059999999999924e+01 6.985959515999505529e+05
1.075830000000000020e+01 7.234938473302476341e+05
1.079599999999999937e+01 7.543414575722137233e+05
1.083380000000000010e+01 7.921054393471814692e+05
1.087149999999999928e+01 8.350719379305238836e+05
1.090930000000000000e+01 8.907882863820254570e+05
1.094699999999999918e+01 9.628544303113950882e+05
1.098479999999999990e+01 1.042060290262966533e+06
1.102250000000000085e+01 1.114422283640432404e+06
1.106029999999999980e+01 1.166364831122133415e+06
1.109800000000000075e+01 1.193569800989285111e+06
1.113579999999999970e+01 1.191886795999183785e+06
1.117350000000000065e+01 1.163334311351062497e+06
1.121129999999999960e+01 1.117489539543180028e+06
1.124900000000000055e+01 1.066054580334645696e+06
1.128679999999999950e+01 1.025170826385470689e+06
1.132450000000000045e+01 1.003706041587829473e+06
1.136229999999999940e+01 9.933355137088267365e+05
1.140000000000000036e+01 9.808946460559669649e+05
1.143779999999999930e+01 9.669624576718821190e+05
1.147550000000000026e+01 9.545882491298597306e+05
1.151329999999999920e+01 9.485344008150515147e+05
1.155100000000000016e+01 9.537484706572076539e+05
1.158880000000000088e+01 9.686710801664041355e+05
1.162650000000000006e+01 9.922718847069157055e+05
1.166430000000000078e+01 1.020574165215229732e+06
1.170199999999999996e+01 1.040723252899573767e+06
1.173980000000000068e+01 1.054710683340993477e+06
1.177749999999999986e+01 1.072890651387391845e+06
1.181530000000000058e+01 1.088916219105404802e+06
1.185299999999999976e+01 1.096083360402625985e+06
1.189080000000000048e+01 1.098400316349916160e+06
1.192849999999999966e+01 1.099556651039797580e+06
1.196630000000000038e+01 1.092270355005878024e+06
1.200399999999999956e+01 1.069909111153127393e+06
1.204170000000000051e+01 1.039806617447051220e+06
1.207949999999999946e+01 1.009174578387476038e+06
1.211720000000000041e+01 9.808877042633383535e+05
1.215499999999999936e+01 9.600229069765030872e+05
1.219270000000000032e+01 9.453509058982260758e+05
1.223049999999999926e+01 9.324236110378217418e+05
1.226820000000000022e+01 9.284761593401356367e+05
1.230599999999999916e+01 9.417503262234365102e+05
1.234370000000000012e+01 9.645650524273455376e+05
1.238150000000000084e+01 9.816862446811564732e+05
1.241920000000000002e+01 9.877884399094803957e+05
1.245700000000000074e+01 9.823208008802268887e+05
1.249469999999999992e+01 9.706890644459237810e+05
1.253250000000000064e+01 9.655501684090129565e+05
1.257019999999999982e+01 9.752667873133125249e+05
1.260800000000000054e+01 9.943051370738605037e+05
1.264569999999999972e+01 1.009205045040088589e+06
1.268350000000000044e+01 1.008247641255362774e+06
1.272119999999999962e+01 1.003478869734714157e+06
1.275900000000000034e+01 1.012314109860276803e+06
1.279669999999999952e+01 1.023098177788534784e+06
1.283450000000000024e+01 1.019183902766629937e+06
1.287219999999999942e+01 9.994682552291591419e+05
1.291000000000000014e+01 9.707919030838597100e+05
1.294769999999999932e+01 9.435990550380543573e+05
1.298550000000000004e+01 9.268603610413682181e+05
1.302319999999999922e+01 9.217310533219252247e+05
1.306099999999999994e+01 9.209734744616950629e+05
1.309869999999999912e+01 9.136845690007874509e+05
1.313649999999999984e+01 8.990838870671999175e+05
1.317420000000000080e+01 8.856597309200733434e+05
1.321189999999999998e+01 8.750936202639659168e+05
1.324970000000000070e+01 8.638394093438812997e+05
1.328739999999999988e+01 8.518765542069968069e+05
1.332520000000000060e+01 8.422912457255687332e+05
1.336289999999999978e+01 8.418348530972750159e+05
1.340070000000000050e+01 8.556135183770514559e+05
1.343839999999999968e+01 8.720471764196201693e+05
1.347620000000000040e+01 8.670980862403123174e+05
1.351389999999999958e+01 8.328638465034721885e+05
1.355170000000000030e+01 7.844960834456693847e+05
1.358939999999999948e+01 7.420445469053236302e+05
1.362720000000000020e+01 7.132164916185881011e+05
1.366489999999999938e+01 6.954323367501869798e+05
1.370270000000000010e+01 6.863189300720233005e+05
1.374039999999999928e+01 6.858809630222918931e+05
1.377820000000000000e+01 6.921519147345833480e+05
1.381589999999999918e+01 7.005628821504379157e+05
1.385369999999999990e+01 7.099999823008978274e+05
1.389140000000000086e+01 7.289382964124301216e+05
1.392919999999999980e+01 7.625691004199575400e+05
1.396690000000000076e+01 8.019326640770493541e+05
1.400469999999999970e+01 8.337814205037619686e+05
1.404240000000000066e+01 8.565424089974451344e+05
1.408019999999999960e+01 8.752882472238976043e+05
1.411790000000000056e+01 8.909108948585499311e+05
1.415569999999999951e+01 8.976981825409262674e+05
1.419340000000000046e+01 8.968330881682387553e+05
1.423119999999999941e+01 8.960321282383276848e+05
1.426890000000000036e+01 8.996474536871197633e+05
1.430669999999999931e+01 9.109247483020924265e+05
1.434440000000000026e+01 9.321377528219433734e+05
1.438209999999999944e+01 9.599229115774476668e+05
1.441990000000000016e+01 9.874550915836613858e+05
1.445759999999999934e+01 1.008501951940015191e+06
1.449540000000000006e+01 1.021232863077645539e+06
1.453309999999999924e+01 1.029282778737881454e+06
1.457089999999999996e+01 1.035129487994660507e+06
1.460859999999999914e+01 1.036964583738835761e+06
1.464639999999999986e+01 1.036107542357619037e+06
1.468410000000000082e+01 1.034361281956029939e+06
1.472189999999999976e+01 1.031338411960439291e+06
1.475960000000000072e+01 1.032354025382519700e+06
1.479739999999999966e+01 1.038270475878096418e+06
1.483510000000000062e+01 1.036369956880067359e+06
1.487289999999999957e+01 1.015976565260618343e+06
1.491060000000000052e+01 9.833727120925373165e+05
1.494839999999999947e+01 9.540677241274697008e+05
1.498610000000000042e+01 9.350619818221343448e+05
1.502389999999999937e+01 9.251368438564597163e+05
