# energy(eV) alpha
0.000000000000000000e+00 0.000000000000000000e+00
3.440000000000000002e-02 3.882495424969343301e-01
6.869999999999999718e-02 1.550700837345201366e+00
1.030999999999999972e-01 3.199673922836799189e+00
1.375000000000000111e-01 5.818638866490910999e+00
1.718999999999999972e-01 9.213328235930349663e+00
2.061999999999999944e-01 1.337693022319142777e+01
2.406000000000000083e-01 1.832056271678525405e+01
2.750000000000000222e-01 2.403845541288795573e+01
3.094000000000000083e-01 3.052998371043582537e+01
3.437000000000000055e-01 3.681408297983280420e+01
3.780999999999999917e-01 4.475249541141367615e+01
4.124999999999999778e-01 5.346109849010912285e+01
4.467999999999999750e-01 6.292625417125037046e+01
4.812000000000000166e-01 7.317240831349174357e+01
5.155999999999999472e-01 8.418544842259387906e+01
5.500000000000000444e-01 9.596531141611357896e+01
5.843000000000000416e-01 1.084906773708864307e+02
6.187000000000000277e-01 1.235351313021079847e+02
6.531000000000000139e-01 1.376974263357405448e+02
6.875000000000000000e-01 1.526198349383500670e+02
7.217999999999999972e-01 1.682748689291839810e+02
7.561999999999999833e-01 1.847084720917317497e+02
7.905999999999999694e-01 2.041122032801131922e+02
8.248999999999999666e-01 2.221180564819059668e+02
8.592999999999999527e-01 2.408962566372091203e+02
8.937000000000000499e-01 2.629261566441306854e+02
9.281000000000000361e-01 2.832882093849294165e+02
9.624000000000000332e-01 3.070547558718838559e+02
9.968000000000000194e-01 3.317764433581575645e+02
1.031199999999999894e+00 3.545364451315478505e+02
1.065600000000000103e+00 3.810071341974471579e+02
1.099900000000000100e+00 4.083541903445556045e+02
1.134300000000000086e+00 4.366528130521484741e+02
1.168700000000000072e+00 4.658570535121538683e+02
1.203000000000000069e+00 4.959211410320763207e+02
1.237400000000000055e+00 5.269214788359015529e+02
1.271800000000000042e+00 5.623586264546735265e+02
1.306200000000000028e+00 5.952302334277326281e+02
1.340500000000000025e+00 6.289456420240151147e+02
1.374900000000000011e+00 6.673973684898119245e+02
1.409299999999999997e+00 7.069045616935657108e+02
1.443699999999999983e+00 7.434638580259127139e+02
1.477999999999999980e+00 7.849186274067764089e+02
1.512399999999999967e+00 8.274614005740894527e+02
1.546799999999999953e+00 8.753037221852288212e+02
1.581099999999999950e+00 9.199314758139433934e+02
1.615499999999999936e+00 9.656172731441700989e+02
1.649899999999999922e+00 1.016864835134318696e+03
1.684299999999999908e+00 1.069276872920913320e+03
1.718599999999999905e+00 1.122777477796309540e+03
1.752999999999999892e+00 1.177519149279894236e+03
1.787400000000000100e+00 1.233378035615867475e+03
1.821800000000000086e+00 1.295379194624015781e+03
1.856100000000000083e+00 1.353507433159976699e+03
1.890500000000000069e+00 1.417984354004111538e+03
1.924900000000000055e+00 1.483725209029784992e+03
1.959200000000000053e+00 1.555988652390052948e+03
1.993600000000000039e+00 1.624302158085964720e+03
2.028000000000000025e+00 1.699362804348269492e+03
2.062399999999999789e+00 1.775779180582005438e+03
2.096699999999999786e+00 1.859138882057381124e+03
2.131099999999999994e+00 1.944100278126787543e+03
2.165500000000000203e+00 2.030560116654940430e+03
2.199899999999999967e+00 2.118471234008331066e+03
2.234199999999999964e+00 2.213712945605691857e+03
2.268600000000000172e+00 2.310655212225281957e+03
2.302999999999999936e+00 2.415310081982658630e+03
2.337299999999999933e+00 2.521510413416495794e+03
2.371700000000000141e+00 2.629512241021641785e+03
2.406099999999999905e+00 2.745513308116410826e+03
2.440500000000000114e+00 2.869757455495743670e+03
2.474800000000000111e+00 2.995732195122022404e+03
2.509199999999999875e+00 3.130273220104484153e+03
2.543600000000000083e+00 3.266748385690379564e+03
2.577999999999999847e+00 3.411857298846997310e+03
2.612299999999999844e+00 3.565691676425798960e+03
2.646700000000000053e+00 3.721737603979009236e+03
2.681099999999999817e+00 3.889154095944482378e+03
2.715399999999999814e+00 4.067943045275052100e+03
2.749800000000000022e+00 4.251533353380130393e+03
2.784199999999999786e+00 4.446949554741063366e+03
2.818599999999999994e+00 4.654442659426948012e+03
2.852899999999999991e+00 4.873923451520538947e+03
2.887300000000000200e+00 5.103483392089052359e+03
2.921699999999999964e+00 5.350487335120219541e+03
2.956100000000000172e+00 5.615205141105780058e+03
2.990400000000000169e+00 5.892618811825865123e+03
3.024799999999999933e+00 6.190818987551800092e+03
3.059200000000000141e+00 6.512487185953820699e+03
3.093500000000000139e+00 6.857595863005012689e+03
3.127899999999999903e+00 7.234690477183778967e+03
3.162300000000000111e+00 7.638632720392267402e+03
3.196699999999999875e+00 8.082832416845659282e+03
3.230999999999999872e+00 8.567315154094561876e+03
3.265400000000000080e+00 9.109054611162953734e+03
3.299799999999999844e+00 9.713538877674835021e+03
3.334200000000000053e+00 1.039754966062849053e+04
3.368500000000000050e+00 1.118833496900402315e+04
3.402899999999999814e+00 1.211741897407975011e+04
3.437300000000000022e+00 1.323494479849177878e+04
3.471600000000000019e+00 1.461371237740919423e+04
3.505999999999999783e+00 1.634661079665417310e+04
3.540399999999999991e+00 1.846362601722517866e+04
3.574800000000000200e+00 2.085590843714532093e+04
3.609100000000000197e+00 2.345595008143708401e+04
3.643499999999999961e+00 2.659562419270231476e+04
3.677900000000000169e+00 3.046795986713156890e+04
3.712299999999999933e+00 3.440349464426780469e+04
3.746599999999999930e+00 3.780014965692809346e+04
3.781000000000000139e+00 4.156863607668154873e+04
3.815399999999999903e+00 4.644754193528732139e+04
3.849699999999999900e+00 5.151598454690247308e+04
3.884100000000000108e+00 5.555952249782953731e+04
3.918499999999999872e+00 5.893069975644881197e+04
3.952900000000000080e+00 6.273415434603526955e+04
3.987200000000000077e+00 6.657387688768350927e+04
4.021600000000000286e+00 7.008911217551800655e+04
4.056000000000000050e+00 7.472828327789698960e+04
4.090399999999999814e+00 8.133310297497309512e+04
4.124699999999999811e+00 8.931539872784233012e+04
4.159099999999999575e+00 9.789425466111270362e+04
4.193500000000000227e+00 1.071139852236725274e+05
4.227800000000000225e+00 1.180176019349209964e+05
4.262199999999999989e+00 1.314321985232655425e+05
4.296599999999999753e+00 1.469644644508948841e+05
4.331000000000000405e+00 1.643904909127830470e+05
4.365300000000000402e+00 1.840669846119564318e+05
4.399700000000000166e+00 2.066872875442489458e+05
4.434099999999999930e+00 2.322637994895235752e+05
4.468499999999999694e+00 2.589534710344534542e+05
4.502799999999999692e+00 2.822542613900816068e+05
4.537200000000000344e+00 2.979622228979570791e+05
4.571600000000000108e+00 3.048183699231786886e+05
4.605900000000000105e+00 3.061189329291564063e+05
4.640299999999999869e+00 3.090633168561677448e+05
4.674699999999999633e+00 3.188598919829486986e+05
4.709100000000000286e+00 3.357938598851635470e+05
4.743400000000000283e+00 3.587960733034111909e+05
4.777800000000000047e+00 3.869139759452893049e+05
4.812199999999999811e+00 4.167414856776337256e+05
4.846599999999999575e+00 4.400891875728525920e+05
4.880899999999999572e+00 4.507768607876189635e+05
4.915300000000000225e+00 4.509702597063427675e+05
4.949699999999999989e+00 4.453131374926598510e+05
4.983999999999999986e+00 4.399152489775769645e+05
5.018399999999999750e+00 4.433160828890447738e+05
5.052800000000000402e+00 4.599028075428978773e+05
5.087200000000000166e+00 4.879586616815395537e+05
5.121500000000000163e+00 5.214330621833456098e+05
5.155899999999999928e+00 5.506165177445274312e+05
5.190299999999999692e+00 5.667446818951094756e+05
5.224700000000000344e+00 5.696142097411709838e+05
5.259000000000000341e+00 5.673714025777777424e+05
5.293400000000000105e+00 5.679938191926715663e+05
5.327799999999999869e+00 5.720728077299298020e+05
5.362099999999999866e+00 5.767987999765245477e+05
5.396499999999999631e+00 5.832210578964032466e+05
5.430900000000000283e+00 5.922622610137020238e+05
5.465300000000000047e+00 6.008825146051932825e+05
5.499600000000000044e+00 6.092375136721492745e+05
5.533999999999999808e+00 6.209995089803241426e+05
5.568399999999999572e+00 6.380440565156360390e+05
5.602800000000000225e+00 6.582144932144265622e+05
5.637100000000000222e+00 6.747974636598526267e+05
5.671499999999999986e+00 6.849390963514439063e+05
5.705899999999999750e+00 6.930452994807366049e+05
5.740199999999999747e+00 7.021314689527500886e+05
5.774600000000000399e+00 7.097127265799636953e+05
5.809000000000000163e+00 7.099196895197563572e+05
5.843399999999999928e+00 7.012409219057481969e+05
5.877699999999999925e+00 6.905637144807027653e+05
5.912099999999999689e+00 6.863427994057689793e+05
5.946500000000000341e+00 6.934684005395754939e+05
5.980900000000000105e+00 7.106458188395685283e+05
6.015200000000000102e+00 7.284838869138896698e+05
6.049599999999999866e+00 7.373170395743947010e+05
6.083999999999999631e+00 7.357925679207438370e+05
6.118299999999999628e+00 7.293030062374297995e+05
6.152700000000000280e+00 7.234455435237041675e+05
6.187100000000000044e+00 7.205407040753398323e+05
6.221499999999999808e+00 7.218341496151136234e+05
6.255799999999999805e+00 7.274814170266338624e+05
6.290199999999999569e+00 7.361787394048796268e+05
6.324600000000000222e+00 7.474686613494813209e+05
6.358999999999999986e+00 7.611562269425992854e+05
6.393299999999999983e+00 7.744767114434519317e+05
6.427699999999999747e+00 7.860435271844710223e+05
6.462100000000000399e+00 7.971202492619405966e+05
6.496400000000000396e+00 8.107396566965698730e+05
6.530800000000000161e+00 8.304334248209790094e+05
6.565199999999999925e+00 8.527878447660676902e+05
6.599599999999999689e+00 8.713502962487250334e+05
6.633899999999999686e+00 8.831105419958819402e+05
6.668300000000000338e+00 8.870127323087136028e+05
6.702700000000000102e+00 8.821876234058747068e+05
6.737099999999999866e+00 8.692605701179585885e+05
6.771399999999999864e+00 8.510647729007949820e+05
6.805799999999999628e+00 8.300840102494694293e+05
6.840200000000000280e+00 8.066201363886555191e+05
6.874500000000000277e+00 7.818400951053753961e+05
6.908900000000000041e+00 7.556079399393545464e+05
6.943299999999999805e+00 7.266443121019008104e+05
6.977699999999999569e+00 6.970871663041915745e+05
7.011999999999999567e+00 6.702400247451114701e+05
7.046400000000000219e+00 6.477476037206219044e+05
7.080799999999999983e+00 6.302260752105044667e+05
7.115199999999999747e+00 6.186990729311191244e+05
7.149499999999999744e+00 6.148762378469603136e+05
7.183900000000000396e+00 6.182012575421581278e+05
7.218300000000000161e+00 6.243316957963691093e+05
7.252600000000000158e+00 6.301184006795990281e+05
7.286999999999999922e+00 6.362844151377966627e+05
7.321399999999999686e+00 6.433105658215105068e+05
7.355800000000000338e+00 6.500097540019970620e+05
7.390100000000000335e+00 6.576393834802143974e+05
7.424500000000000099e+00 6.715379226921652444e+05
7.458899999999999864e+00 6.911989427708184812e+05
7.493299999999999628e+00 7.099065882799831452e+05
7.527599999999999625e+00 7.240785310835229466e+05
7.562000000000000277e+00 7.342994966817040695e+05
7.596400000000000041e+00 7.412018332484230632e+05
7.630700000000000038e+00 7.467745229788533179e+05
7.665099999999999802e+00 7.529137670615792740e+05
7.699499999999999567e+00 7.567606136648434913e+05
7.733900000000000219e+00 7.538006793595581548e+05
7.768200000000000216e+00 7.439056391828429187e+05
7.802599999999999980e+00 7.296242397538505029e+05
7.836999999999999744e+00 7.135345009345511207e+05
7.871400000000000396e+00 6.975980414779701969e+05
7.905700000000000394e+00 6.844248596756337211e+05
7.940100000000000158e+00 6.763432041857010918e+05
7.974499999999999922e+00 6.716162931132190861e+05
8.008800000000000807e+00 6.671216562413723441e+05
8.043200000000000571e+00 6.642131811833237298e+05
8.077600000000000335e+00 6.643512468572664075e+05
8.112000000000000099e+00 6.642684220043197274e+05
8.146300000000000097e+00 6.620359877103572944e+05
8.180699999999999861e+00 6.609039969851989299e+05
8.215099999999999625e+00 6.634176894870570395e+05
8.249499999999999389e+00 6.684176623552691890e+05
8.283799999999999386e+00 6.731541131625048583e+05
8.318199999999999150e+00 6.756257584579013055e+05
8.352600000000000691e+00 6.757383236094702734e+05
8.386900000000000688e+00 6.755846272304034792e+05
8.421300000000000452e+00 6.786307079901564866e+05
8.455700000000000216e+00 6.851577079252748517e+05
8.490099999999999980e+00 6.939486293404018506e+05
8.524399999999999977e+00 7.035505912303104997e+05
8.558799999999999741e+00 7.093242981724578422e+05
8.593199999999999505e+00 7.064547982155460631e+05
8.627599999999999270e+00 6.951542548815120244e+05
8.661899999999999267e+00 6.811650831483495422e+05
8.696300000000000807e+00 6.710456638117132243e+05
8.730700000000000571e+00 6.672690605780706974e+05
8.765000000000000568e+00 6.676305401959326118e+05
8.799400000000000333e+00 6.648153078422266990e+05
8.833800000000000097e+00 6.540829982037448790e+05
8.868199999999999861e+00 6.395945995074859820e+05
8.902499999999999858e+00 6.286709982219039230e+05
8.936899999999999622e+00 6.259695488126985729e+05
8.971299999999999386e+00 6.304370063671825919e+05
9.005699999999999150e+00 6.370909792633868055e+05
9.039999999999999147e+00 6.422707700803696644e+05
9.074400000000000688e+00 6.443247975528391544e+05
9.108800000000000452e+00 6.450597560542349238e+05
9.143100000000000449e+00 6.486644460629877867e+05
9.177500000000000213e+00 6.569809456500355154e+05
9.211899999999999977e+00 6.666505443522225833e+05
9.246299999999999741e+00 6.749654200969373342e+05
9.280599999999999739e+00 6.833272703955064062e+05
9.314999999999999503e+00 6.908496436959729763e+05
9.349399999999999267e+00 6.933184673408124363e+05
9.383800000000000807e+00 6.888653855664813891e+05
9.418100000000000804e+00 6.776226800508722663e+05
9.452500000000000568e+00 6.594965790641324129e+05
9.486900000000000333e+00 6.398490443334103329e+05
9.521200000000000330e+00 6.283391548907436663e+05
9.555600000000000094e+00 6.299906000991924666e+05
9.589999999999999858e+00 6.433514233080174308e+05
9.624399999999999622e+00 6.635429064002487576e+05
9.658699999999999619e+00 6.843868639177690493e+05
9.693099999999999383e+00 6.987800761200564448e+05
9.727499999999999147e+00 7.001748587465403834e+05
9.761900000000000688e+00 6.874295952341911616e+05
9.796200000000000685e+00 6.681871943766716868e+05
9.830600000000000449e+00 6.524779055887872819e+05
9.865000000000000213e+00 6.433939494132067775e+05
9.899300000000000210e+00 6.389474704649462365e+05
9.933699999999999974e+00 6.377318470813198946e+05
9.968099999999999739e+00 6.396632745095579885e+05
1.000249999999999950e+01 6.426940427542448742e+05
1.003679999999999950e+01 6.437798135381304892e+05
1.007119999999999926e+01 6.400148610204183497e+05
1.010560000000000080e+01 6.300104350115506677e+05
1.014000000000000057e+01 6.172931347966878675e+05
1.017430000000000057e+01 6.079896519037318649e+05
1.020870000000000033e+01 6.055224638825644506e+05
1.024310000000000009e+01 6.107743105168138864e+05
1.027740000000000009e+01 6.248408146612796700e+05
1.031179999999999986e+01 6.493734251128938049e+05
1.034619999999999962e+01 6.833454554216106189e+05
1.038059999999999938e+01 7.220484459132102784e+05
1.041489999999999938e+01 7.593526209791027941e+05
1.044929999999999914e+01 7.912882835827131057e+05
1.048370000000000068e+01 8.173245902302876348e+05
1.051810000000000045e+01 8.363851987558017718e+05
1.055240000000000045e+01 8.470520526810705196e+05
1.058680000000000021e+01 8.495532490748333512e+05
1.062119999999999997e+01 8.471530482943273382e+05
1.065549999999999997e+01 8.445192293766550720e+05
1.068989999999999974e+01 8.440521754440950463e+05
1.072429999999999950e+01 8.455417637714527082e+05
1.075869999999999926e+01 8.495980608632598305e+05
1.079299999999999926e+01 8.574382182812304236e+05
1.082740000000000080e+01 8.665472572044327389e+05
1.086180000000000057e+01 8.709008228322115028e+05
1.089620000000000033e+01 8.680613374746791087e+05
1.093050000000000033e+01 8.603614690608787350e+05
1.096490000000000009e+01 8.493017022920777090e+05
1.099929999999999986e+01 8.354342988225605804e+05
1.103359999999999985e+01 8.221398876061118208e+05
1.106799999999999962e+01 8.130245166579700308e+05
1.110239999999999938e+01 8.080402347473283298e+05
1.113679999999999914e+01 8.044758912396332016e+05
1.117109999999999914e+01 7.993585817609352525e+05
1.120550000000000068e+01 7.927356109248420689e+05
1.123990000000000045e+01 7.868395461622191360e+05
1.127430000000000021e+01 7.834138415977791883e+05
1.130860000000000021e+01 7.830453842690620804e+05
1.134299999999999997e+01 7.848798682515503606e+05
1.137739999999999974e+01 7.865968275213238085e+05
1.141169999999999973e+01 7.856963207195202122e+05
1.144609999999999950e+01 7.804734463139026193e+05
1.148049999999999926e+01 7.703332310006679036e+05
1.151490000000000080e+01 7.556355265195141546e+05
1.154920000000000080e+01 7.362238446523933671e+05
1.158360000000000056e+01 7.138521354633538285e+05
1.161800000000000033e+01 6.921828997071930207e+05
1.165240000000000009e+01 6.721136199002581416e+05
1.168670000000000009e+01 6.509066536452608416e+05
1.172109999999999985e+01 6.264824342873174464e+05
1.175549999999999962e+01 6.003853992390034255e+05
1.178979999999999961e+01 5.772065703012185404e+05
1.182419999999999938e+01 5.598818613496024627e+05
1.185859999999999914e+01 5.483772698263647035e+05
1.189300000000000068e+01 5.410354384026948828e+05
1.192730000000000068e+01 5.331823807907007867e+05
1.196170000000000044e+01 5.217071937119062641e+05
1.199610000000000021e+01 5.078755363727871445e+05
1.203049999999999997e+01 4.945869471346887294e+05
1.206479999999999997e+01 4.840971515943075647e+05
1.209919999999999973e+01 4.760866408763272921e+05
1.213359999999999950e+01 4.694226813059917768e+05
1.216789999999999949e+01 4.651698424155434477e+05
1.220229999999999926e+01 4.654903537493129843e+05
1.223670000000000080e+01 4.706296451288321405e+05
1.227110000000000056e+01 4.789589418391077197e+05
1.230540000000000056e+01 4.881105845507880440e+05
1.233980000000000032e+01 4.969422092002216959e+05
1.237420000000000009e+01 5.055812918800648185e+05
1.240859999999999985e+01 5.144904064009228023e+05
1.244289999999999985e+01 5.250064393203909276e+05
1.247729999999999961e+01 5.383722887489891145e+05
1.251169999999999938e+01 5.526803379478792194e+05
1.254599999999999937e+01 5.650985902564817807e+05
1.258039999999999914e+01 5.750321915373516968e+05
1.261480000000000068e+01 5.829015718245706521e+05
1.264920000000000044e+01 5.899747405546464724e+05
1.268350000000000044e+01 5.992377065436955309e+05
1.271790000000000020e+01 6.129884077892374480e+05
1.275229999999999997e+01 6.316560295605622232e+05
1.278669999999999973e+01 6.523811783259151271e+05
1.282099999999999973e+01 6.710602165584885515e+05
1.285539999999999949e+01 6.865524469245990040e+05
1.288979999999999926e+01 6.982696274330834858e+05
1.292409999999999926e+01 7.057313397475254023e+05
1.295850000000000080e+01 7.107663406789423898e+05
1.299290000000000056e+01 7.121298451786481310e+05
1.302730000000000032e+01 7.070460977152881678e+05
1.306160000000000032e+01 6.977144781900849193e+05
1.309600000000000009e+01 6.875497981660346268e+05
1.313039999999999985e+01 6.771470087892150041e+05
1.316479999999999961e+01 6.679793616420734907e+05
1.319909999999999961e+01 6.615449125871635042e+05
1.323349999999999937e+01 6.546986257942738011e+05
1.326789999999999914e+01 6.446068192964101909e+05
1.330219999999999914e+01 6.344907720041957218e+05
1.333660000000000068e+01 6.312577687417067355e+05
1.337100000000000044e+01 6.398329919558542315e+05
1.340540000000000020e+01 6.612912505637650611e+05
1.343970000000000020e+01 6.931868734056174289e+05
1.347409999999999997e+01 7.299596913193952059e+05
1.350849999999999973e+01 7.655353582126721740e+05
1.354289999999999949e+01 7.984789966547044460e+05
1.357719999999999949e+01 8.331515033687489340e+05
1.361159999999999926e+01 8.705941551366855856e+05
1.364600000000000080e+01 9.067455428518402623e+05
1.368040000000000056e+01 9.376813866751900641e+05
