# energy(eV) alpha
0.000000000000000000e+00 0.000000000000000000e+00
3.830000000000000071e-02 2.414882458589892589e-01
7.660000000000000142e-02 7.244507190252847950e-01
1.150000000000000050e-01 1.812667982517812026e+00
1.532999999999999918e-01 3.382780410204300203e+00
1.915999999999999925e-01 4.831632538309090563e+00
2.298999999999999932e-01 7.246257644201770987e+00
2.682999999999999829e-01 9.301533598921951196e+00
3.065999999999999837e-01 1.256096797173513302e+01
3.448999999999999844e-01 1.630202954901037060e+01
3.831999999999999851e-01 1.931756296670720019e+01
4.215999999999999748e-01 2.390724875146269923e+01
4.598999999999999755e-01 2.897284609715610060e+01
4.981999999999999762e-01 3.294986694908969582e+01
5.364999999999999769e-01 3.885552092339430175e+01
5.748999999999999666e-01 4.524931848062330886e+01
6.131999999999999673e-01 5.018471049524964656e+01
6.514999999999999680e-01 5.740961202598264634e+01
6.897999999999999687e-01 6.511251905104901994e+01
7.281999999999999584e-01 7.330275024369687742e+01
7.664999999999999591e-01 7.955094262766870372e+01
8.047999999999999599e-01 8.856589984551669659e+01
8.430999999999999606e-01 9.805603687353216458e+01
8.814999999999999503e-01 1.080340659442669420e+02
9.197999999999999510e-01 1.155836524927316304e+02
9.580999999999999517e-01 1.263798978429410766e+02
9.963999999999999524e-01 1.376456586657499486e+02
1.034799999999999942e+00 1.493993541773025129e+02
1.073099999999999943e+00 1.616091753976112955e+02
1.111399999999999944e+00 1.742899810904939102e+02
1.149699999999999944e+00 1.838328880848042104e+02
1.188099999999999934e+00 1.973473010050911398e+02
1.226399999999999935e+00 2.113113420110148013e+02
1.264699999999999935e+00 2.257439611876492904e+02
1.302999999999999936e+00 2.406400112903250772e+02
1.341399999999999926e+00 2.560155293803858285e+02
1.379699999999999926e+00 2.718363695630632719e+02
1.417999999999999927e+00 2.881146024882079928e+02
1.456299999999999928e+00 3.048560833600806177e+02
1.494599999999999929e+00 3.220540481802372597e+02
1.532999999999999918e+00 3.445139309435141399e+02
1.571299999999999919e+00 3.627374695123667721e+02
1.609599999999999920e+00 3.814122353197147390e+02
1.647899999999999920e+00 4.005440260774610692e+02
1.686299999999999910e+00 4.201411547284388348e+02
1.724599999999999911e+00 4.455359488500204179e+02
1.762899999999999912e+00 4.661233809748677004e+02
1.801199999999999912e+00 4.871532743127675076e+02
1.839599999999999902e+00 5.143664759643701245e+02
1.877899999999999903e+00 5.363910982086986223e+02
1.916199999999999903e+00 5.648041611432447553e+02
1.954499999999999904e+00 5.878176014069377970e+02
1.992899999999999894e+00 6.174644892442529454e+02
2.031200000000000117e+00 6.477389682506913005e+02
2.069500000000000117e+00 6.722739039677394430e+02
2.107800000000000118e+00 7.037457183437383037e+02
2.146199999999999886e+00 7.358962741797779472e+02
2.184499999999999886e+00 7.686588510423055141e+02
2.222799999999999887e+00 8.020635651263829686e+02
2.261099999999999888e+00 8.291395677440156078e+02
2.299500000000000099e+00 8.708078595981969556e+02
2.337800000000000100e+00 9.061191103034406069e+02
2.376100000000000101e+00 9.420415696897792941e+02
2.414400000000000102e+00 9.785877640193708658e+02
2.452799999999999869e+00 1.015795517197437789e+03
2.491099999999999870e+00 1.061213831288178426e+03
2.529399999999999871e+00 1.099700198875609658e+03
2.567699999999999871e+00 1.146647685040088390e+03
2.606100000000000083e+00 1.194440980885486852e+03
2.644400000000000084e+00 1.234933333340136869e+03
2.682700000000000085e+00 1.284199058330391154e+03
2.721000000000000085e+00 1.334246145864558457e+03
2.759399999999999853e+00 1.385117124360292564e+03
2.797699999999999854e+00 1.445232104426693695e+03
2.835999999999999854e+00 1.497711782678258942e+03
2.874299999999999855e+00 1.559683772205034757e+03
2.912700000000000067e+00 1.613848258688337637e+03
2.951000000000000068e+00 1.677618330822265989e+03
2.989300000000000068e+00 1.742324843865279036e+03
3.027600000000000069e+00 1.807957820025409546e+03
3.065900000000000070e+00 1.874507185891025983e+03
3.104299999999999837e+00 1.951384782897378273e+03
3.142599999999999838e+00 2.019852057211546708e+03
3.180899999999999839e+00 2.098720230100846038e+03
3.219199999999999839e+00 2.178650545139891619e+03
3.257600000000000051e+00 2.269438672215119368e+03
3.295900000000000052e+00 2.351566649329907705e+03
3.334200000000000053e+00 2.444625063609565132e+03
3.372500000000000053e+00 2.538898836495202886e+03
3.410899999999999821e+00 2.644522362994264313e+03
3.449199999999999822e+00 2.751382235630562263e+03
3.487499999999999822e+00 2.859579126481489766e+03
3.525799999999999823e+00 2.979478451676174700e+03
3.564200000000000035e+00 3.100862318014217635e+03
3.602500000000000036e+00 3.223565341475126388e+03
3.640800000000000036e+00 3.358321813016134911e+03
3.679100000000000037e+00 3.505355167568487559e+03
3.717499999999999805e+00 3.654123568077340678e+03
3.755799999999999805e+00 3.815317914686099357e+03
3.794099999999999806e+00 3.989275297127323029e+03
3.832399999999999807e+00 4.176165462982859935e+03
3.870800000000000018e+00 4.368776130445599847e+03
3.909100000000000019e+00 4.578212392955980249e+03
3.947400000000000020e+00 4.816234020874679118e+03
3.985700000000000021e+00 5.060296373943628168e+03
4.024099999999999788e+00 5.333579656879877803e+03
4.062400000000000233e+00 5.636207018137182786e+03
4.100699999999999790e+00 5.976448213262071476e+03
4.139000000000000234e+00 6.354722696098562665e+03
4.177399999999999558e+00 6.783392267721454118e+03
4.215700000000000003e+00 7.290309948468128823e+03
4.253999999999999559e+00 7.892437734083906435e+03
4.292300000000000004e+00 8.626827748367102686e+03
4.330700000000000216e+00 9.563468522467726871e+03
4.368999999999999773e+00 1.078121412558733937e+04
4.407300000000000217e+00 1.236606245600974762e+04
4.445599999999999774e+00 1.429185301177950714e+04
4.483900000000000219e+00 1.644733583988677492e+04
4.522300000000000431e+00 1.904336943063522995e+04
4.560599999999999987e+00 2.235604123762244490e+04
4.598900000000000432e+00 2.569965892131491273e+04
4.637199999999999989e+00 2.838433572995523718e+04
4.675600000000000200e+00 3.143891230463422107e+04
4.713899999999999757e+00 3.484828534620151913e+04
4.752200000000000202e+00 3.764601381190092070e+04
4.790499999999999758e+00 4.095121401377255825e+04
4.828899999999999970e+00 4.540799880490683427e+04
4.867200000000000415e+00 4.981509396362015104e+04
4.905499999999999972e+00 5.318066061322006135e+04
4.943800000000000416e+00 5.566430862715710100e+04
4.982199999999999740e+00 5.794544579907730804e+04
5.020500000000000185e+00 6.034961942903952877e+04
5.058799999999999741e+00 6.309730005908520980e+04
5.097100000000000186e+00 6.666183620492089540e+04
5.135500000000000398e+00 7.077997035535889154e+04
5.173799999999999955e+00 7.424977604554760910e+04
5.212100000000000399e+00 7.686488731904803717e+04
5.250399999999999956e+00 7.920587027196290728e+04
5.288800000000000168e+00 8.164658571419269720e+04
5.327099999999999724e+00 8.452928816983780416e+04
5.365400000000000169e+00 8.738706820864893962e+04
5.403699999999999726e+00 8.968165835544960282e+04
5.442099999999999937e+00 9.149090030841321277e+04
5.480400000000000382e+00 9.344892090294840455e+04
5.518699999999999939e+00 9.643579773476610717e+04
5.557000000000000384e+00 1.007265180083198647e+05
5.595399999999999707e+00 1.056234712756104273e+05
5.633700000000000152e+00 1.098595491672376957e+05
5.671999999999999709e+00 1.126431941370434361e+05
5.710300000000000153e+00 1.150517535719383159e+05
5.748700000000000365e+00 1.185130627702799829e+05
5.786999999999999922e+00 1.233817535933327017e+05
5.825300000000000367e+00 1.293783443760862865e+05
5.863599999999999923e+00 1.359593140764312120e+05
5.901900000000000368e+00 1.436036918587867985e+05
5.940299999999999692e+00 1.537274357111141435e+05
5.978600000000000136e+00 1.669468576119497011e+05
6.016899999999999693e+00 1.837647060497463681e+05
6.055200000000000138e+00 2.043168253503815795e+05
6.093600000000000350e+00 2.286123214389966743e+05
6.131899999999999906e+00 2.559661946499866026e+05
6.170200000000000351e+00 2.820571995866707875e+05
6.208499999999999908e+00 3.042760270314415102e+05
6.246900000000000119e+00 3.237610061152947601e+05
6.285199999999999676e+00 3.415239527182249585e+05
6.323500000000000121e+00 3.577355643955771229e+05
6.361799999999999677e+00 3.736068590195208672e+05
6.400199999999999889e+00 3.927465550452389289e+05
6.438500000000000334e+00 4.179407571890713880e+05
6.476799999999999891e+00 4.468597063492747839e+05
6.515100000000000335e+00 4.755060244108479819e+05
6.553499999999999659e+00 5.024383147296778625e+05
6.591800000000000104e+00 5.259662088540270925e+05
6.630099999999999660e+00 5.456376657403162681e+05
6.668400000000000105e+00 5.628875361489020288e+05
6.706800000000000317e+00 5.828498401850677328e+05
6.745099999999999874e+00 6.112141339595123427e+05
6.783400000000000318e+00 6.479989934231546940e+05
6.821699999999999875e+00 6.874922647165565286e+05
6.860100000000000087e+00 7.216985961567630293e+05
6.898399999999999643e+00 7.447600913315430516e+05
6.936700000000000088e+00 7.529409565254454501e+05
6.974999999999999645e+00 7.479668908519236138e+05
7.013399999999999856e+00 7.358126304431885947e+05
7.051700000000000301e+00 7.218635892452851404e+05
7.089999999999999858e+00 7.081864850816946710e+05
7.128300000000000303e+00 6.924285108557551866e+05
7.166699999999999626e+00 6.722798801852026954e+05
7.205000000000000071e+00 6.484411536963566905e+05
7.243299999999999628e+00 6.225456294955853373e+05
7.281600000000000072e+00 5.952593324503783369e+05
7.319899999999999629e+00 5.675221847202900099e+05
7.358299999999999841e+00 5.419982391592893982e+05
7.396600000000000286e+00 5.216619014212228940e+05
7.434899999999999842e+00 5.071323733474024339e+05
7.473200000000000287e+00 4.987321829345407314e+05
7.511599999999999611e+00 4.982908295579053811e+05
7.549900000000000055e+00 5.063946571748676361e+05
7.588199999999999612e+00 5.190201319679263397e+05
7.626500000000000057e+00 5.322131795858618570e+05
7.664900000000000269e+00 5.502151233770876424e+05
7.703199999999999825e+00 5.742666054824345047e+05
7.741500000000000270e+00 5.911508232339810347e+05
7.779799999999999827e+00 5.942565808925480815e+05
7.818200000000000038e+00 5.897128784622676903e+05
7.856499999999999595e+00 5.819479308400539448e+05
7.894800000000000040e+00 5.750128764198611025e+05
7.933099999999999596e+00 5.766585688265508506e+05
7.971499999999999808e+00 5.932812947358166566e+05
8.009800000000000253e+00 6.258701374472168973e+05
8.048099999999999810e+00 6.676501063885310432e+05
8.086399999999999366e+00 7.056786217109330464e+05
8.124800000000000466e+00 7.293963533824054757e+05
8.163100000000000023e+00 7.400251721735581523e+05
8.201399999999999579e+00 7.462821622388643445e+05
8.239699999999999136e+00 7.497586816870827461e+05
8.278100000000000236e+00 7.474967998860395746e+05
8.316399999999999793e+00 7.447199909457772737e+05
8.354699999999999349e+00 7.479480792089957977e+05
8.393000000000000682e+00 7.566787945592483738e+05
8.431400000000000006e+00 7.673780033355836058e+05
8.469699999999999562e+00 7.802955168257271871e+05
8.507999999999999119e+00 7.963698012235513888e+05
8.546300000000000452e+00 8.146765023503564298e+05
8.584699999999999775e+00 8.310437193488342455e+05
8.622999999999999332e+00 8.397836937320665456e+05
8.661300000000000665e+00 8.406408871952472255e+05
8.699600000000000222e+00 8.332463809518452035e+05
8.737999999999999545e+00 8.137256709019308910e+05
8.776300000000000878e+00 7.848274410506370477e+05
8.814600000000000435e+00 7.550713354238469619e+05
8.852899999999999991e+00 7.287170783812402515e+05
8.891199999999999548e+00 7.052078095600047382e+05
8.929600000000000648e+00 6.832290192550682696e+05
8.967900000000000205e+00 6.605409516679710941e+05
9.006199999999999761e+00 6.352985993705661967e+05
9.044499999999999318e+00 6.088876447987597203e+05
9.082900000000000418e+00 5.865659361220508581e+05
9.121199999999999974e+00 5.720304410141017288e+05
9.159499999999999531e+00 5.644551513783886330e+05
9.197800000000000864e+00 5.604641955383974127e+05
9.236200000000000188e+00 5.576816360941691091e+05
9.274499999999999744e+00 5.577058097472508671e+05
9.312799999999999301e+00 5.633363964063012972e+05
9.351100000000000634e+00 5.727950434290521080e+05
9.389499999999999957e+00 5.825499833677510032e+05
9.427799999999999514e+00 5.901278785681845620e+05
9.466100000000000847e+00 5.908272188591185259e+05
9.504400000000000404e+00 5.819673640815017279e+05
9.542799999999999727e+00 5.647522341826389311e+05
9.581099999999999284e+00 5.441469180662148865e+05
9.619400000000000617e+00 5.284365920931447763e+05
9.657700000000000173e+00 5.240230596267033252e+05
9.696099999999999497e+00 5.289201939964294434e+05
9.734400000000000830e+00 5.334743857405567542e+05
9.772700000000000387e+00 5.295037680627803784e+05
9.810999999999999943e+00 5.205114926033442025e+05
9.849399999999999267e+00 5.175778968056711601e+05
9.887700000000000600e+00 5.280124325839768862e+05
9.926000000000000156e+00 5.498720176675486146e+05
9.964299999999999713e+00 5.734295873881172156e+05
1.000270000000000081e+01 5.889920685534854420e+05
1.004100000000000037e+01 5.954036236634209054e+05
1.007929999999999993e+01 6.008240367835930083e+05
1.011759999999999948e+01 6.101899468148401938e+05
1.015600000000000058e+01 6.193832483159389812e+05
1.019430000000000014e+01 6.253293557473208057e+05
1.023259999999999970e+01 6.273090204247545917e+05
1.027089999999999925e+01 6.235224750839484623e+05
1.030920000000000059e+01 6.175020052816212410e+05
1.034759999999999991e+01 6.137339597282183822e+05
1.038589999999999947e+01 6.093508235001211287e+05
1.042420000000000080e+01 6.002420997020691866e+05
1.046250000000000036e+01 5.868730211157650920e+05
1.050089999999999968e+01 5.697454066756360698e+05
1.053919999999999924e+01 5.512041078974707052e+05
1.057750000000000057e+01 5.350529419689737260e+05
1.061580000000000013e+01 5.213189379357201396e+05
1.065419999999999945e+01 5.042824470573716098e+05
1.069250000000000078e+01 4.815893683549736743e+05
1.073080000000000034e+01 4.623208467803701642e+05
1.076909999999999989e+01 4.572776501457211562e+05
1.080749999999999922e+01 4.661423065545408172e+05
1.084580000000000055e+01 4.796052308032579604e+05
1.088410000000000011e+01 4.901659991610536817e+05
1.092239999999999966e+01 4.970600050468792324e+05
1.096080000000000076e+01 5.041569015174657106e+05
1.099910000000000032e+01 5.162791276105335564e+05
1.103739999999999988e+01 5.347424163484642049e+05
1.107569999999999943e+01 5.560596237038213294e+05
1.111410000000000053e+01 5.742880133787645027e+05
1.115240000000000009e+01 5.819633817468238994e+05
1.119069999999999965e+01 5.764826139855820220e+05
1.122899999999999920e+01 5.637184191552189877e+05
1.126740000000000030e+01 5.499584160749595612e+05
1.130569999999999986e+01 5.386665667267289246e+05
1.134399999999999942e+01 5.346177220771592110e+05
1.138230000000000075e+01 5.398417431551576592e+05
1.142070000000000007e+01 5.537563663563026348e+05
1.145899999999999963e+01 5.757152793565639295e+05
1.149729999999999919e+01 5.983766142885081936e+05
1.153560000000000052e+01 6.081935490552645642e+05
1.157399999999999984e+01 6.031626937857019948e+05
1.161229999999999940e+01 5.881874457231708802e+05
1.165060000000000073e+01 5.673851498732412001e+05
1.168890000000000029e+01 5.464017150910258060e+05
1.172719999999999985e+01 5.311384247605314013e+05
1.176559999999999917e+01 5.251616639883583412e+05
1.180390000000000050e+01 5.279836663224959048e+05
1.184220000000000006e+01 5.332067174065865111e+05
1.188049999999999962e+01 5.359477518499521539e+05
1.191890000000000072e+01 5.390039463151984382e+05
1.195720000000000027e+01 5.472038809424455976e+05
1.199549999999999983e+01 5.632928697275042068e+05
1.203379999999999939e+01 5.838897705029412173e+05
1.207220000000000049e+01 6.022988354209993267e+05
1.211050000000000004e+01 6.168963919187722495e+05
1.214879999999999960e+01 6.288459081945979269e+05
1.218709999999999916e+01 6.340731031334720319e+05
1.222550000000000026e+01 6.309207040664755041e+05
1.226379999999999981e+01 6.267409850347616011e+05
1.230209999999999937e+01 6.240742353173784213e+05
1.234040000000000070e+01 6.200452876039076364e+05
1.237880000000000003e+01 6.166355013600979000e+05
1.241709999999999958e+01 6.155645046284033451e+05
1.245539999999999914e+01 6.127021805836086860e+05
1.249370000000000047e+01 6.063658446059948765e+05
1.253209999999999980e+01 6.001437919969272334e+05
1.257039999999999935e+01 5.942133075910545886e+05
1.260870000000000068e+01 5.863759466575426050e+05
1.264700000000000024e+01 5.773989229588798480e+05
1.268539999999999957e+01 5.671157007272469345e+05
1.272369999999999912e+01 5.571022175629059784e+05
1.276200000000000045e+01 5.504013904389585368e+05
1.280030000000000001e+01 5.479642997415858554e+05
1.283869999999999933e+01 5.519363968640338862e+05
1.287700000000000067e+01 5.616410936415512115e+05
1.291530000000000022e+01 5.722191516727177659e+05
1.295359999999999978e+01 5.848548185746347299e+05
1.299200000000000088e+01 6.049447922574456315e+05
1.303030000000000044e+01 6.330691053935670061e+05
1.306859999999999999e+01 6.666317649077501846e+05
1.310689999999999955e+01 7.026960338170117466e+05
1.314530000000000065e+01 7.399566890214115847e+05
1.318360000000000021e+01 7.766891078977764118e+05
1.322189999999999976e+01 8.094997472134289565e+05
1.326019999999999932e+01 8.384059705497169634e+05
1.329850000000000065e+01 8.637637076028628508e+05
1.333689999999999998e+01 8.811317872741480824e+05
1.337519999999999953e+01 8.893499414870176697e+05
1.341350000000000087e+01 8.952266719797989354e+05
1.345180000000000042e+01 9.052676427916022949e+05
1.349019999999999975e+01 9.195914008881852496e+05
1.352849999999999930e+01 9.332270071887028171e+05
1.356680000000000064e+01 9.424404111296401825e+05
1.360510000000000019e+01 9.464224370735548437e+05
1.364349999999999952e+01 9.439237032286286121e+05
1.368180000000000085e+01 9.349375985183699522e+05
1.372010000000000041e+01 9.240565686956949066e+05
1.375839999999999996e+01 9.168572647421992151e+05
1.379679999999999929e+01 9.139747651737248525e+05
1.383510000000000062e+01 9.126276960026152665e+05
1.387340000000000018e+01 9.096896409993867856e+05
1.391169999999999973e+01 9.036710834978951607e+05
1.395010000000000083e+01 8.948979161506416276e+05
1.398840000000000039e+01 8.871619638587282971e+05
1.402669999999999995e+01 8.857495227741959970e+05
1.406499999999999950e+01 8.934294756977225188e+05
1.410340000000000060e+01 9.089588335146538448e+05
1.414170000000000016e+01 9.274150283600620460e+05
1.417999999999999972e+01 9.467866833711959189e+05
1.421829999999999927e+01 9.698622387656081701e+05
1.425670000000000037e+01 9.954723006080645137e+05
1.429499999999999993e+01 1.018336008077089558e+06
1.433329999999999949e+01 1.038969301006908412e+06
1.437160000000000082e+01 1.061528286758598639e+06
1.441000000000000014e+01 1.086767320790109225e+06
1.444829999999999970e+01 1.112153808068071026e+06
1.448659999999999926e+01 1.130829100339509547e+06
1.452490000000000059e+01 1.139699951437686803e+06
1.456329999999999991e+01 1.143325337323548039e+06
1.460159999999999947e+01 1.146153486916055670e+06
1.463990000000000080e+01 1.149845425408248790e+06
1.467820000000000036e+01 1.150107504434651462e+06
1.471649999999999991e+01 1.141109696371134836e+06
1.475489999999999924e+01 1.122300755537912715e+06
1.479320000000000057e+01 1.096823247110662749e+06
1.483150000000000013e+01 1.067268875197488349e+06
1.486979999999999968e+01 1.034224450557135395e+06
1.490820000000000078e+01 9.982366653541981941e+05
1.494650000000000034e+01 9.617017451486713253e+05
1.498479999999999990e+01 9.266716306355614215e+05
1.502309999999999945e+01 8.924154295357288793e+05
1.506150000000000055e+01 8.563581569782207953e+05
1.509980000000000011e+01 8.207640187103748322e+05
1.513809999999999967e+01 7.911080381492838496e+05
1.517639999999999922e+01 7.683476057861230802e+05
1.521480000000000032e+01 7.505523357627656078e+05
1.525309999999999988e+01 7.355703729777281405e+05
