# energy(eV) alpha
0.000000000000000000e+00 0.000000000000000000e+00
3.819999999999999785e-02 2.400923991712885230e-01
7.649999999999999856e-02 7.212061015002090292e-01
1.146999999999999964e-01 1.802194971593575890e+00
1.529999999999999971e-01 2.884658012226005486e+00
1.912000000000000088e-01 4.806229218745627030e+00
2.295000000000000095e-01 7.210674678769165347e+00
2.676999999999999935e-01 9.251259916486993973e+00
3.059999999999999942e-01 1.249658139658286160e+01
3.442000000000000060e-01 1.621729830025457275e+01
3.825000000000000067e-01 1.922107850091531844e+01
4.207000000000000184e-01 2.378051776407460594e+01
4.588999999999999746e-01 2.881814191396762936e+01
4.971999999999999753e-01 3.277944945770816076e+01
5.353999999999999870e-01 3.865293241324612694e+01
5.736999999999999877e-01 4.501177427589099977e+01
6.118999999999999995e-01 4.992063875351500002e+01
6.502000000000000002e-01 5.711363024958750145e+01
6.884000000000000119e-01 6.477469251321406318e+01
7.267000000000000126e-01 7.064201398506097007e+01
7.649000000000000243e-01 7.913384929583712335e+01
8.032000000000000250e-01 8.811044965921060168e+01
8.414000000000000368e-01 9.754918361285002959e+01
8.796000000000000485e-01 1.047061102858626072e+02
9.179000000000000492e-01 1.149831322203749693e+02
9.560999999999999499e-01 1.257183667067339030e+02
9.943999999999999506e-01 1.369390598373987302e+02
1.032599999999999962e+00 1.486150299830920858e+02
1.070899999999999963e+00 1.574238811832027807e+02
1.109099999999999975e+00 1.699189346387290698e+02
1.147399999999999975e+00 1.828920159447945650e+02
1.185599999999999987e+00 1.963173327304322129e+02
1.223899999999999988e+00 2.102268549023885384e+02
1.262100000000000000e+00 2.245777982084393898e+02
1.300300000000000011e+00 2.393936082091682636e+02
1.338600000000000012e+00 2.546879136339984484e+02
1.376800000000000024e+00 2.704269405259621522e+02
1.415100000000000025e+00 2.866379209114428477e+02
1.453300000000000036e+00 3.032899619863618454e+02
1.491600000000000037e+00 3.204174992966290461e+02
1.529800000000000049e+00 3.379765659264717783e+02
1.568100000000000049e+00 3.560157778714266783e+02
1.606300000000000061e+00 3.794685621654201668e+02
1.644600000000000062e+00 3.985232171615871266e+02
1.682800000000000074e+00 4.180002331648038307e+02
1.721000000000000085e+00 4.379214155467624892e+02
1.759300000000000086e+00 4.637670236789936098e+02
1.797500000000000098e+00 4.846865461273723668e+02
1.835800000000000098e+00 5.060718498640840153e+02
1.874000000000000110e+00 5.336770823559693326e+02
1.912300000000000111e+00 5.560495962865693400e+02
1.950499999999999901e+00 5.848658009588914410e+02
1.988799999999999901e+00 6.082162200524107902e+02
2.027000000000000135e+00 6.382328931928517477e+02
2.065300000000000136e+00 6.689222119204289356e+02
2.103499999999999925e+00 6.937577846374042565e+02
2.141700000000000159e+00 7.255973972417530149e+02
2.180000000000000160e+00 7.581282362299673423e+02
2.218199999999999950e+00 7.912510412174509611e+02
2.256499999999999950e+00 8.250463733355178420e+02
2.294700000000000184e+00 8.594491760828957467e+02
2.333000000000000185e+00 8.944985394330878989e+02
2.371199999999999974e+00 9.301467754432135280e+02
2.409499999999999975e+00 9.664574570294416844e+02
2.447700000000000209e+00 1.003329442572219705e+03
2.486000000000000210e+00 1.048454694819888118e+03
2.524199999999999999e+00 1.086661132872258122e+03
2.562399999999999789e+00 1.133269071892736292e+03
2.600699999999999790e+00 1.172816217939923035e+03
2.638900000000000023e+00 1.220948724673060042e+03
2.677200000000000024e+00 1.269914597078989345e+03
2.715399999999999814e+00 1.319636351520001199e+03
2.753699999999999815e+00 1.370180430782834492e+03
2.791900000000000048e+00 1.421466232622136886e+03
2.830200000000000049e+00 1.473562987325450877e+03
2.868399999999999839e+00 1.526387052817340646e+03
2.906699999999999839e+00 1.588759930823402328e+03
2.944900000000000073e+00 1.652052328787124452e+03
2.983200000000000074e+00 1.707382286374918976e+03
3.021399999999999864e+00 1.772435806133752976e+03
3.059600000000000097e+00 1.838427483194090200e+03
3.097900000000000098e+00 1.914671977781115856e+03
3.136099999999999888e+00 1.982549129689007941e+03
3.174399999999999888e+00 2.060909486973185722e+03
3.212600000000000122e+00 2.140247871369953828e+03
3.250900000000000123e+00 2.220718292486624705e+03
3.289099999999999913e+00 2.302133799681879736e+03
3.327399999999999913e+00 2.394552192406238191e+03
3.365600000000000147e+00 2.488119901649890380e+03
3.403900000000000148e+00 2.582924244448219270e+03
3.442099999999999937e+00 2.678796489280134665e+03
3.480300000000000171e+00 2.786072044558554353e+03
3.518600000000000172e+00 2.894722257257544243e+03
3.556799999999999962e+00 3.015031745701913678e+03
3.595099999999999962e+00 3.126301211858250554e+03
3.633300000000000196e+00 3.259964413174418041e+03
3.671600000000000197e+00 3.395284314976008773e+03
3.709799999999999986e+00 3.531973481908320537e+03
3.748099999999999987e+00 3.681107153243752236e+03
3.786300000000000221e+00 3.842761513652571466e+03
3.824600000000000222e+00 4.006199475976809481e+03
3.862800000000000011e+00 4.193512350363405858e+03
3.900999999999999801e+00 4.382726107403901551e+03
3.939299999999999802e+00 4.585202593202067874e+03
3.977500000000000036e+00 4.812301875659511097e+03
4.015799999999999592e+00 5.045490800231475987e+03
4.054000000000000270e+00 5.307618668700487433e+03
4.092299999999999827e+00 5.587639558571386260e+03
4.130499999999999616e+00 5.905072582721129947e+03
4.168800000000000061e+00 6.260580338235286945e+03
4.206999999999999851e+00 6.654288127226891447e+03
4.245300000000000296e+00 7.110735441651771907e+03
4.283500000000000085e+00 7.638149602211861747e+03
4.321699999999999875e+00 8.269637206572229843e+03
4.360000000000000320e+00 9.050706095499137518e+03
4.398200000000000109e+00 1.003940831752999475e+04
4.436499999999999666e+00 1.133676641538784861e+04
4.474700000000000344e+00 1.300051389178427780e+04
4.512999999999999901e+00 1.493473147679441536e+04
4.551199999999999690e+00 1.705254536002334498e+04
4.589500000000000135e+00 1.969028735159422649e+04
4.627699999999999925e+00 2.309151472425671091e+04
4.666000000000000369e+00 2.650714049715425062e+04
4.704200000000000159e+00 2.931192731519888912e+04
4.742399999999999949e+00 3.253657397196881720e+04
4.780700000000000394e+00 3.608605524761362904e+04
4.818900000000000183e+00 3.894460438241048541e+04
4.857199999999999740e+00 4.220762812709985155e+04
4.895400000000000418e+00 4.649310583658570977e+04
4.933699999999999974e+00 5.078004521743181976e+04
4.971899999999999764e+00 5.406021067274552479e+04
5.010200000000000209e+00 5.629880858437089773e+04
5.048399999999999999e+00 5.820071322395395691e+04
5.086700000000000443e+00 6.047039497675470921e+04
5.124900000000000233e+00 6.352070354851199227e+04
5.163100000000000023e+00 6.738165141104158829e+04
5.201399999999999579e+00 7.170275339587495546e+04
5.239600000000000257e+00 7.539644287317889393e+04
5.277899999999999814e+00 7.761887246583869273e+04
5.316099999999999604e+00 7.944715836077912536e+04
5.354400000000000048e+00 8.183138444907052326e+04
5.392599999999999838e+00 8.486635328771293280e+04
5.430900000000000283e+00 8.793697237995971227e+04
5.469100000000000072e+00 9.016917215171783755e+04
5.507399999999999629e+00 9.172009949987212894e+04
5.545600000000000307e+00 9.421311145994682738e+04
5.583800000000000097e+00 9.829965162641165080e+04
5.622099999999999653e+00 1.030876044828463491e+05
5.660300000000000331e+00 1.078194164192052849e+05
5.698599999999999888e+00 1.119914993907278549e+05
5.736799999999999677e+00 1.160318669331871351e+05
5.775100000000000122e+00 1.214819879865062685e+05
5.813299999999999912e+00 1.290715860353174940e+05
5.851600000000000357e+00 1.376707177792555594e+05
5.889800000000000146e+00 1.458853209717646241e+05
5.928099999999999703e+00 1.553242387515862065e+05
5.966300000000000381e+00 1.681497756770211563e+05
6.004500000000000171e+00 1.850889620811088535e+05
6.042799999999999727e+00 2.055364260238379065e+05
6.081000000000000405e+00 2.288589532649022876e+05
6.119299999999999962e+00 2.541652292569964775e+05
6.157499999999999751e+00 2.782345310643260600e+05
6.195800000000000196e+00 2.992549829454761930e+05
6.233999999999999986e+00 3.179280475643113605e+05
6.272300000000000431e+00 3.351446545715957182e+05
6.310500000000000220e+00 3.510171346857288736e+05
6.348799999999999777e+00 3.673748107333648368e+05
6.386999999999999567e+00 3.878169540162692429e+05
6.425200000000000244e+00 4.138395354942478589e+05
6.463499999999999801e+00 4.425027261660770746e+05
6.501699999999999591e+00 4.724592064957233379e+05
6.540000000000000036e+00 5.033370458128770697e+05
6.578199999999999825e+00 5.317446437456422718e+05
6.616500000000000270e+00 5.560536578411177034e+05
6.654700000000000060e+00 5.770132368164216168e+05
6.692999999999999616e+00 5.989962875062299427e+05
6.731200000000000294e+00 6.265391254753561225e+05
6.769499999999999851e+00 6.590889673242478166e+05
6.807699999999999640e+00 6.919633090740403859e+05
6.845900000000000318e+00 7.195596106549471151e+05
6.884199999999999875e+00 7.383099690221411875e+05
6.922399999999999665e+00 7.444693690290802624e+05
6.960700000000000109e+00 7.379795845399254467e+05
6.998899999999999899e+00 7.248894656053693034e+05
7.037200000000000344e+00 7.103836626015924849e+05
7.075400000000000134e+00 6.968324658019563649e+05
7.113699999999999690e+00 6.823655536259658402e+05
7.151900000000000368e+00 6.631577766912094085e+05
7.190199999999999925e+00 6.410514515843102708e+05
7.228399999999999714e+00 6.187286108786110999e+05
7.266600000000000392e+00 5.958275668921006145e+05
7.304899999999999949e+00 5.715351495356186060e+05
7.343099999999999739e+00 5.470615932336368132e+05
7.381400000000000183e+00 5.253600281427523587e+05
7.419599999999999973e+00 5.088574064346188679e+05
7.457900000000000418e+00 4.978231908380921814e+05
7.496100000000000207e+00 4.933941168730722857e+05
7.534399999999999764e+00 4.976607591588204959e+05
7.572600000000000442e+00 5.083860674410106731e+05
7.610899999999999999e+00 5.212454377266233787e+05
7.649099999999999788e+00 5.386080699324498419e+05
7.687299999999999578e+00 5.629835198008299340e+05
7.725600000000000023e+00 5.836854318706959020e+05
7.763799999999999812e+00 5.904899905103723286e+05
7.802100000000000257e+00 5.871102463379066903e+05
7.840300000000000047e+00 5.793342467622833792e+05
7.878599999999999604e+00 5.726908536860054592e+05
7.916800000000000281e+00 5.746991198706261348e+05
7.955099999999999838e+00 5.919258588620765368e+05
7.993299999999999628e+00 6.270039902077735169e+05
8.031599999999999184e+00 6.751481350426714635e+05
8.069800000000000750e+00 7.227760704219373874e+05
8.108100000000000307e+00 7.540197536605859641e+05
8.146300000000000097e+00 7.663685669276141562e+05
8.184499999999999886e+00 7.685797035731967771e+05
8.222799999999999443e+00 7.662894694960875204e+05
8.260999999999999233e+00 7.593559930590322474e+05
8.299300000000000566e+00 7.531430470007436816e+05
8.337500000000000355e+00 7.568740014031319879e+05
8.375799999999999912e+00 7.684551031156629324e+05
8.413999999999999702e+00 7.788353242903258651e+05
8.452299999999999258e+00 7.866580591514344560e+05
8.490500000000000824e+00 7.963817133874216815e+05
8.528800000000000381e+00 8.092632793675780995e+05
8.567000000000000171e+00 8.217491634985330747e+05
8.605199999999999960e+00 8.282412196598117007e+05
8.643499999999999517e+00 8.256094336488795234e+05
8.681699999999999307e+00 8.154752376420069486e+05
8.720000000000000639e+00 7.963313686972442083e+05
8.758200000000000429e+00 7.670607882468155585e+05
8.796499999999999986e+00 7.336372599337259308e+05
8.834699999999999775e+00 7.030239378023371100e+05
8.872999999999999332e+00 6.782049372374690138e+05
8.911199999999999122e+00 6.584167522392517421e+05
8.949500000000000455e+00 6.395731256338709500e+05
8.987700000000000244e+00 6.178756879289976787e+05
9.025900000000000034e+00 5.929986237866841257e+05
9.064199999999999591e+00 5.690712711874676170e+05
9.102399999999999380e+00 5.506622590166652808e+05
9.140700000000000713e+00 5.386437346827068832e+05
9.178900000000000503e+00 5.322386174315832322e+05
9.217200000000000060e+00 5.306658729162757518e+05
9.255399999999999849e+00 5.332059329030673252e+05
9.293699999999999406e+00 5.411909388537154300e+05
9.331899999999999196e+00 5.564027125778637128e+05
9.370200000000000529e+00 5.761465442918853369e+05
9.408400000000000318e+00 5.922075666774243582e+05
9.446600000000000108e+00 5.950444106940509519e+05
9.484899999999999665e+00 5.832139514927644050e+05
9.523099999999999454e+00 5.628891428050539689e+05
9.561400000000000787e+00 5.415237344651925378e+05
9.599600000000000577e+00 5.277287927194223739e+05
9.637900000000000134e+00 5.273208646865888732e+05
9.676099999999999923e+00 5.365227617177464999e+05
9.714399999999999480e+00 5.442381716367057525e+05
9.752599999999999270e+00 5.405210550775268348e+05
9.790900000000000603e+00 5.270270162609601393e+05
9.829100000000000392e+00 5.158473289140434936e+05
9.867300000000000182e+00 5.153877875239902642e+05
9.905599999999999739e+00 5.273424922032607719e+05
9.943799999999999528e+00 5.476647187220639316e+05
9.982100000000000861e+00 5.689466216219915077e+05
1.002030000000000065e+01 5.855094626585224178e+05
1.005860000000000021e+01 5.976592318068641471e+05
1.009680000000000000e+01 6.091794609034224413e+05
1.013509999999999955e+01 6.198021990811434807e+05
1.017329999999999934e+01 6.259294782369678142e+05
1.021160000000000068e+01 6.278370716767107369e+05
1.024980000000000047e+01 6.263724826556508197e+05
1.028800000000000026e+01 6.225996174884081120e+05
1.032629999999999981e+01 6.181862846455505351e+05
1.036449999999999960e+01 6.123531825493752258e+05
1.040279999999999916e+01 6.042621231538886204e+05
1.044100000000000072e+01 5.948629152212545741e+05
1.047930000000000028e+01 5.835718501608640654e+05
1.051750000000000007e+01 5.684172638678046642e+05
1.055579999999999963e+01 5.513763835350411246e+05
1.059399999999999942e+01 5.373516365837373305e+05
1.063230000000000075e+01 5.268102243490053806e+05
1.067050000000000054e+01 5.135792186905345297e+05
1.070870000000000033e+01 4.943651861124019488e+05
1.074699999999999989e+01 4.780626916966144345e+05
1.078519999999999968e+01 4.741479638648719410e+05
1.082349999999999923e+01 4.819845130415615859e+05
1.086170000000000080e+01 4.941553840595887159e+05
1.090000000000000036e+01 5.024140255779314903e+05
1.093820000000000014e+01 5.074169470759357791e+05
1.097649999999999970e+01 5.153997244231111836e+05
1.101469999999999949e+01 5.287674934797304450e+05
1.105300000000000082e+01 5.479808881824703421e+05
1.109120000000000061e+01 5.696580928892822703e+05
1.112940000000000040e+01 5.833509199748570099e+05
1.116769999999999996e+01 5.829789423901130212e+05
1.120589999999999975e+01 5.732507664035612252e+05
1.124419999999999931e+01 5.584858361362770665e+05
1.128240000000000087e+01 5.418157539839409292e+05
1.132070000000000043e+01 5.294559406055470463e+05
1.135890000000000022e+01 5.259513663307895185e+05
1.139719999999999978e+01 5.313386372726901900e+05
1.143539999999999957e+01 5.454506611496590776e+05
1.147369999999999912e+01 5.658274524539741687e+05
1.151190000000000069e+01 5.829658541203865316e+05
1.155010000000000048e+01 5.878934168804227374e+05
1.158840000000000003e+01 5.816019890425102785e+05
1.162659999999999982e+01 5.678567784839554224e+05
1.166489999999999938e+01 5.484050524794640951e+05
1.170309999999999917e+01 5.281498040432096459e+05
1.174140000000000050e+01 5.140292888864926063e+05
1.177960000000000029e+01 5.095683523114069831e+05
1.181789999999999985e+01 5.154929355929362355e+05
1.185609999999999964e+01 5.242566948745643604e+05
1.189439999999999920e+01 5.266639479323849082e+05
1.193260000000000076e+01 5.265927942568828585e+05
1.197080000000000055e+01 5.340670449308716925e+05
1.200910000000000011e+01 5.539920741096055135e+05
1.204729999999999990e+01 5.803125778918878641e+05
1.208559999999999945e+01 6.018005093239329290e+05
1.212379999999999924e+01 6.191196063291920582e+05
1.216210000000000058e+01 6.337451259866961045e+05
1.220030000000000037e+01 6.389425608008211711e+05
1.223859999999999992e+01 6.363506586575675756e+05
1.227679999999999971e+01 6.346744573789217975e+05
1.231509999999999927e+01 6.338793144176794449e+05
1.235330000000000084e+01 6.301834277242375538e+05
1.239150000000000063e+01 6.253456976666471455e+05
1.242980000000000018e+01 6.205585120975108584e+05
1.246799999999999997e+01 6.139725088254229631e+05
1.250629999999999953e+01 6.081480931087454082e+05
1.254449999999999932e+01 6.066200078925697599e+05
1.258280000000000065e+01 6.059617258687675931e+05
1.262100000000000044e+01 6.014813704373191576e+05
1.265930000000000000e+01 5.919043058572912123e+05
1.269749999999999979e+01 5.812618776929787127e+05
1.273579999999999934e+01 5.739123589055419434e+05
1.277399999999999913e+01 5.704175294663421810e+05
1.281220000000000070e+01 5.709952479976493632e+05
1.285050000000000026e+01 5.780647730517997406e+05
1.288870000000000005e+01 5.914476759184974944e+05
1.292699999999999960e+01 6.101227459178694990e+05
1.296519999999999939e+01 6.348528349103542278e+05
1.300350000000000072e+01 6.684997900494437199e+05
1.304170000000000051e+01 7.101054717424801784e+05
1.308000000000000007e+01 7.544876658675848739e+05
1.311819999999999986e+01 7.969921465057029855e+05
1.315649999999999942e+01 8.369164080221566837e+05
1.319469999999999921e+01 8.727839831490392098e+05
1.323300000000000054e+01 9.013217402023008326e+05
1.327120000000000033e+01 9.204373927155260462e+05
1.330940000000000012e+01 9.301213282527913107e+05
1.334769999999999968e+01 9.326571960688929539e+05
1.338589999999999947e+01 9.320016062791910954e+05
1.342420000000000080e+01 9.346339262265670113e+05
1.346240000000000059e+01 9.440588219558000565e+05
1.350070000000000014e+01 9.570703271053571953e+05
1.353889999999999993e+01 9.669343750404231250e+05
1.357719999999999949e+01 9.691730014898671070e+05
1.361539999999999928e+01 9.624213623176137917e+05
1.365370000000000061e+01 9.488554913458455121e+05
1.369190000000000040e+01 9.351851302706312854e+05
1.373010000000000019e+01 9.267098658362579299e+05
1.376839999999999975e+01 9.239548672207115451e+05
1.380659999999999954e+01 9.239092289531765273e+05
1.384490000000000087e+01 9.228889717843316030e+05
1.388310000000000066e+01 9.191608531840960495e+05
1.392140000000000022e+01 9.137848764917935478e+05
1.395960000000000001e+01 9.080400637723932741e+05
1.399789999999999957e+01 9.048218931346886093e+05
1.403609999999999935e+01 9.098990781313386979e+05
1.407440000000000069e+01 9.270127099055384751e+05
1.411260000000000048e+01 9.540680175730716437e+05
1.415080000000000027e+01 9.862737071320159594e+05
1.418909999999999982e+01 1.022450262658430263e+06
1.422729999999999961e+01 1.063756937952596694e+06
1.426559999999999917e+01 1.107810541940949624e+06
1.430380000000000074e+01 1.149266451826630160e+06
1.434210000000000029e+01 1.181746225584811997e+06
1.438030000000000008e+01 1.206033969225296285e+06
1.441859999999999964e+01 1.229806071392996702e+06
1.445679999999999943e+01 1.250435860510315513e+06
1.449510000000000076e+01 1.260285203320767498e+06
1.453330000000000055e+01 1.259698269003142836e+06
1.457150000000000034e+01 1.254615082439318299e+06
1.460979999999999990e+01 1.252008596770481905e+06
1.464799999999999969e+01 1.256345451206869213e+06
1.468629999999999924e+01 1.264587349825493759e+06
1.472450000000000081e+01 1.268159745472908719e+06
1.476280000000000037e+01 1.259111879008969292e+06
1.480100000000000016e+01 1.235763270496365847e+06
1.483929999999999971e+01 1.202223201883300906e+06
1.487749999999999950e+01 1.164420507306244224e+06
1.491580000000000084e+01 1.126634467975151725e+06
1.495400000000000063e+01 1.089563429081959417e+06
1.499220000000000041e+01 1.052031580432548188e+06
1.503049999999999997e+01 1.011409830778034870e+06
1.506869999999999976e+01 9.669392327270891983e+05
1.510699999999999932e+01 9.217813036587120732e+05
1.514520000000000088e+01 8.813862012709646951e+05
1.518350000000000044e+01 8.481750319449952804e+05
1.522170000000000023e+01 8.218955098103841301e+05
