# energy(eV) alpha
0.000000000000000000e+00 0.000000000000000000e+00
3.839999999999999664e-02 2.433508799341882745e-01
7.679999999999999327e-02 7.300383689767833140e-01
1.150999999999999940e-01 1.823464109661605770e+00
1.534999999999999976e-01 3.404361534080560858e+00
1.918999999999999873e-01 4.863785480052109200e+00
2.303000000000000047e-01 7.295789060138315740e+00
2.686000000000000054e-01 9.359293850156936045e+00
3.069999999999999951e-01 1.264106591263975155e+01
3.453999999999999848e-01 1.640866114901931994e+01
3.837999999999999745e-01 1.944614970608065363e+01
4.222000000000000197e-01 2.406246168636186766e+01
4.605000000000000204e-01 2.915745516617713307e+01
4.989000000000000101e-01 3.316309058871195958e+01
5.372999999999999998e-01 3.911076238120752890e+01
5.756999999999999895e-01 4.554165468589015120e+01
6.139999999999999902e-01 5.244726831055358929e+01
6.523999999999999799e-01 5.777932540596815159e+01
6.907999999999999696e-01 6.553616534327170484e+01
7.291999999999999593e-01 7.377388049045717366e+01
7.675999999999999490e-01 8.006646946835306267e+01
8.058999999999999497e-01 8.913296570084683879e+01
8.443000000000000504e-01 9.868980685802485198e+01
8.827000000000000401e-01 1.087245890341867351e+02
9.211000000000000298e-01 1.192378662539344134e+02
9.594000000000000306e-01 1.271855384521443000e+02
9.978000000000000203e-01 1.385293301565391175e+02
1.036200000000000010e+00 1.503501622879533102e+02
1.074600000000000000e+00 1.626444189337743182e+02
1.112999999999999989e+00 1.754108990495417686e+02
1.151299999999999990e+00 1.886343964653509317e+02
1.189699999999999980e+00 2.023436713235354603e+02
1.228099999999999969e+00 2.165244119419588174e+02
1.266499999999999959e+00 2.311728172735056148e+02
1.304799999999999960e+00 2.462670116046649014e+02
1.343199999999999950e+00 2.618490776228613868e+02
1.381599999999999939e+00 2.778948037885625126e+02
1.419999999999999929e+00 2.944026401088902389e+02
1.458399999999999919e+00 3.113749729215396655e+02
1.496699999999999919e+00 3.287825422505346182e+02
1.535099999999999909e+00 3.466732952426094698e+02
1.573499999999999899e+00 3.650201839912877517e+02
1.611900000000000110e+00 3.888717206698715358e+02
1.650199999999999889e+00 4.082181699053163015e+02
1.688600000000000101e+00 4.280392363593132927e+02
1.727000000000000091e+00 4.537188364354630039e+02
1.765400000000000080e+00 4.745521682990925001e+02
1.803800000000000070e+00 4.958393477710057482e+02
1.842100000000000071e+00 5.232887673677342946e+02
1.880500000000000060e+00 5.455686408506428506e+02
1.918900000000000050e+00 5.742759466017266732e+02
1.957300000000000040e+00 5.975533302198781485e+02
1.995600000000000041e+00 6.274421648247041503e+02
2.033999999999999808e+00 6.580229225742035624e+02
2.072400000000000020e+00 6.849675030181629154e+02
2.110799999999999788e+00 7.146001404193546023e+02
2.149199999999999999e+00 7.470274921405223267e+02
2.187500000000000000e+00 7.800725286890960888e+02
2.225900000000000212e+00 8.137927905831155613e+02
2.264299999999999979e+00 8.481495149381859164e+02
2.302700000000000191e+00 8.831441108458351437e+02
2.341099999999999959e+00 9.260074630717052742e+02
2.379399999999999959e+00 9.623268501836120095e+02
2.417800000000000171e+00 9.993117937969394688e+02
2.456199999999999939e+00 1.044481336811855726e+03
2.494600000000000151e+00 1.082797882669575074e+03
2.532900000000000151e+00 1.129472711190315977e+03
2.571299999999999919e+00 1.177005850515939073e+03
2.609700000000000131e+00 1.217353396527698578e+03
2.648099999999999898e+00 1.266395670228519521e+03
2.686500000000000110e+00 1.316241727448891197e+03
2.724800000000000111e+00 1.375169667425300304e+03
2.763199999999999878e+00 1.426694417107618392e+03
2.801600000000000090e+00 1.478994119385887416e+03
2.839999999999999858e+00 1.540726555671314145e+03
2.878299999999999859e+00 1.603367169234474886e+03
2.916700000000000070e+00 1.658149030237472971e+03
2.955099999999999838e+00 1.725627603786342434e+03
2.993500000000000050e+00 1.797157137409391453e+03
3.031899999999999817e+00 1.863608365385050320e+03
3.070199999999999818e+00 1.940204738299714109e+03
3.108600000000000030e+00 2.017959710129752011e+03
3.146999999999999797e+00 2.096798249331554871e+03
3.185400000000000009e+00 2.176706676301435436e+03
3.223700000000000010e+00 2.260817624549136326e+03
3.262100000000000222e+00 2.349367751332938496e+03
3.300499999999999989e+00 2.445654903567758993e+03
3.338900000000000201e+00 2.546530028458291781e+03
3.377299999999999969e+00 2.652056774498357754e+03
3.415599999999999969e+00 2.758836539348594215e+03
3.454000000000000181e+00 2.877282426114978989e+03
3.492399999999999949e+00 2.997156484463499510e+03
3.530800000000000161e+00 3.118481694298233379e+03
3.569100000000000161e+00 3.255163212291335640e+03
3.607499999999999929e+00 3.397068097247949481e+03
3.645900000000000141e+00 3.554903536424177673e+03
3.684299999999999908e+00 3.714532551559937019e+03
3.722700000000000120e+00 3.886765093579007498e+03
3.761000000000000121e+00 4.071771832477672888e+03
3.799399999999999888e+00 4.269859173197871314e+03
3.837800000000000100e+00 4.492286589909705071e+03
3.876199999999999868e+00 4.728226281788181950e+03
3.914499999999999869e+00 4.977637806646073841e+03
3.952900000000000080e+00 5.263696075138882406e+03
3.991299999999999848e+00 5.586785022029916945e+03
4.029700000000000060e+00 5.947453701904762056e+03
4.068100000000000271e+00 6.345980727066881627e+03
4.106399999999999828e+00 6.829491581995242086e+03
4.144800000000000040e+00 7.387390936958668135e+03
4.183200000000000252e+00 8.079589191429112361e+03
4.221599999999999575e+00 8.943194008871732876e+03
4.259900000000000020e+00 1.007570438955695499e+04
4.298300000000000232e+00 1.156574926088168468e+04
4.336700000000000443e+00 1.344793099804451413e+04
4.375099999999999767e+00 1.561964154614353356e+04
4.413499999999999979e+00 1.815181460444607364e+04
4.451800000000000423e+00 2.130622006814819179e+04
4.490199999999999747e+00 2.447476545493215963e+04
4.528599999999999959e+00 2.698015670666129154e+04
4.567000000000000171e+00 2.981866457368627016e+04
4.605299999999999727e+00 3.307016656241599412e+04
4.643699999999999939e+00 3.584485502770447056e+04
4.682100000000000151e+00 3.911083830492926063e+04
4.720500000000000362e+00 4.354813141807944339e+04
4.758899999999999686e+00 4.804305965674780600e+04
4.797200000000000131e+00 5.169810858005440969e+04
4.835600000000000342e+00 5.443578736284502520e+04
4.873999999999999666e+00 5.676373066367033607e+04
4.912399999999999878e+00 5.920877466854448721e+04
4.950700000000000323e+00 6.193501670769963675e+04
4.989099999999999646e+00 6.531693493336850952e+04
5.027499999999999858e+00 6.946401113940034702e+04
5.065900000000000070e+00 7.412284296524738602e+04
5.104300000000000281e+00 7.859169285038451198e+04
5.142599999999999838e+00 8.153523463007016107e+04
5.181000000000000050e+00 8.275319527834962355e+04
5.219400000000000261e+00 8.378716267424095713e+04
5.257799999999999585e+00 8.581450497332154191e+04
5.296100000000000030e+00 8.864663411889165582e+04
5.334500000000000242e+00 9.187115247398342763e+04
5.372899999999999565e+00 9.526982420582110353e+04
5.411299999999999777e+00 9.864362370393428137e+04
5.449699999999999989e+00 1.014726401737794222e+05
5.488000000000000433e+00 1.030566212730359402e+05
5.526399999999999757e+00 1.040879216163905512e+05
5.564799999999999969e+00 1.062074977488047589e+05
5.603200000000000180e+00 1.096256990538347745e+05
5.641499999999999737e+00 1.135405278764924151e+05
5.679899999999999949e+00 1.164231953063753899e+05
5.718300000000000161e+00 1.178902707794579765e+05
5.756700000000000372e+00 1.194656726308174257e+05
5.795099999999999696e+00 1.226801126478725200e+05
5.833400000000000141e+00 1.275470659895587305e+05
5.871800000000000352e+00 1.334267278720892791e+05
5.910199999999999676e+00 1.402555936601408757e+05
5.948599999999999888e+00 1.485868655906066706e+05
5.986900000000000333e+00 1.596097267204297241e+05
6.025299999999999656e+00 1.748476827127307479e+05
6.063699999999999868e+00 1.949938064463905466e+05
6.102100000000000080e+00 2.206099868613108119e+05
6.140500000000000291e+00 2.508221737686532142e+05
6.178799999999999848e+00 2.814380090230713249e+05
6.217200000000000060e+00 3.089391835457010893e+05
6.255600000000000271e+00 3.329432147769769654e+05
6.293999999999999595e+00 3.537148170006824075e+05
6.332300000000000040e+00 3.698103591907871305e+05
6.370700000000000252e+00 3.822189335312061594e+05
6.409099999999999575e+00 3.977695673584863544e+05
6.447499999999999787e+00 4.208610135750292684e+05
6.485899999999999999e+00 4.500769650709577836e+05
6.524200000000000443e+00 4.809170724133721669e+05
6.562599999999999767e+00 5.073856945639782352e+05
6.600999999999999979e+00 5.261293600384431193e+05
6.639400000000000190e+00 5.402805867330740439e+05
6.677800000000000402e+00 5.559092344859956065e+05
6.716099999999999959e+00 5.777342913383506238e+05
6.754500000000000171e+00 6.077259389555348316e+05
6.792900000000000382e+00 6.443950688978624530e+05
6.831299999999999706e+00 6.819818775925188093e+05
6.869600000000000151e+00 7.150535496969323140e+05
6.908000000000000362e+00 7.407810088146080961e+05
6.946399999999999686e+00 7.549417402765399311e+05
6.984799999999999898e+00 7.540589983387677930e+05
7.023200000000000109e+00 7.423492138359288219e+05
7.061499999999999666e+00 7.270903522218414582e+05
7.099899999999999878e+00 7.091611190858222544e+05
7.138300000000000090e+00 6.860898687165675219e+05
7.176700000000000301e+00 6.607692537701745750e+05
7.214999999999999858e+00 6.350600196427176706e+05
7.253400000000000070e+00 6.078667334037268301e+05
7.291800000000000281e+00 5.829412583289283793e+05
7.330199999999999605e+00 5.632307044829655206e+05
7.368599999999999817e+00 5.459722065815943060e+05
7.406900000000000261e+00 5.295797096895386931e+05
7.445299999999999585e+00 5.162166631707935012e+05
7.483699999999999797e+00 5.085774301157140289e+05
7.522100000000000009e+00 5.084547376151959761e+05
7.560399999999999565e+00 5.160028336371503538e+05
7.598799999999999777e+00 5.286953046590039739e+05
7.637199999999999989e+00 5.435247229291702388e+05
7.675600000000000200e+00 5.619126735119521618e+05
7.714000000000000412e+00 5.825290149082202697e+05
7.752299999999999969e+00 5.948075467889844440e+05
7.790700000000000180e+00 5.950874548380424967e+05
7.829100000000000392e+00 5.882658609328039456e+05
7.867499999999999716e+00 5.782722545162707102e+05
7.905800000000000161e+00 5.710298349146218970e+05
7.944200000000000372e+00 5.740418079630049178e+05
7.982599999999999696e+00 5.899670732947154902e+05
8.021000000000000796e+00 6.161578852350037778e+05
8.059400000000000119e+00 6.480844203155130381e+05
8.097699999999999676e+00 6.775303303674965864e+05
8.136100000000000776e+00 6.972798865440191003e+05
8.174500000000000099e+00 7.086085220112222014e+05
8.212899999999999423e+00 7.168559240153033752e+05
8.251200000000000756e+00 7.281297040139321471e+05
8.289600000000000080e+00 7.425786402834100882e+05
8.327999999999999403e+00 7.529365640345140127e+05
8.366400000000000503e+00 7.601812802617165726e+05
8.404799999999999827e+00 7.704335833573017735e+05
8.443099999999999383e+00 7.823141915413294919e+05
8.481500000000000483e+00 7.951157992336115567e+05
8.519899999999999807e+00 8.120347831377686234e+05
8.558299999999999130e+00 8.338350585204008967e+05
8.596600000000000463e+00 8.552840865097063361e+05
8.634999999999999787e+00 8.715872799624018371e+05
8.673400000000000887e+00 8.804325120086151874e+05
8.711800000000000210e+00 8.739076591497951886e+05
8.750199999999999534e+00 8.474418316453017760e+05
8.788500000000000867e+00 8.104367565436204895e+05
8.826900000000000190e+00 7.746302759287189692e+05
8.865299999999999514e+00 7.461076593329111347e+05
8.903700000000000614e+00 7.268087569273731206e+05
8.942000000000000171e+00 7.114074193533107173e+05
8.980399999999999494e+00 6.910871783184445230e+05
9.018800000000000594e+00 6.646448672076525399e+05
9.057199999999999918e+00 6.369535506372298114e+05
9.095599999999999241e+00 6.145413585886821384e+05
9.133900000000000574e+00 6.023675059304906754e+05
9.172299999999999898e+00 5.986826978938715765e+05
9.210699999999999221e+00 5.962102920367763145e+05
9.249100000000000321e+00 5.889873467886531726e+05
9.287399999999999878e+00 5.778300163377355784e+05
9.325799999999999201e+00 5.684944649506367277e+05
9.364200000000000301e+00 5.655663916454472346e+05
9.402599999999999625e+00 5.685702737857846078e+05
9.441000000000000725e+00 5.720764587895903969e+05
9.479300000000000281e+00 5.688356271471595392e+05
9.517699999999999605e+00 5.567825633407849818e+05
9.556100000000000705e+00 5.382740029611178907e+05
9.594500000000000028e+00 5.185141708076011855e+05
9.632799999999999585e+00 5.058695986806895235e+05
9.671200000000000685e+00 5.058507647877497948e+05
9.709600000000000009e+00 5.160508981752697146e+05
9.747999999999999332e+00 5.288589278317518765e+05
9.786400000000000432e+00 5.360320972072232980e+05
9.824699999999999989e+00 5.380937042713878909e+05
9.863099999999999312e+00 5.435775794002142502e+05
9.901500000000000412e+00 5.581062220710595138e+05
9.939899999999999736e+00 5.774328005142008187e+05
9.978199999999999292e+00 5.895029084984124638e+05
1.001660000000000039e+01 5.871268548377063125e+05
1.005499999999999972e+01 5.774175769348663744e+05
1.009340000000000082e+01 5.750036024937093025e+05
1.013180000000000014e+01 5.848822109987537842e+05
1.017009999999999970e+01 5.994168287005512975e+05
1.020850000000000080e+01 6.118118308864451246e+05
1.024690000000000012e+01 6.177037057002406800e+05
1.028529999999999944e+01 6.146678963154226076e+05
1.032360000000000078e+01 6.093094923716968624e+05
1.036200000000000010e+01 6.052846160155052785e+05
1.040039999999999942e+01 5.964380515229541343e+05
1.043880000000000052e+01 5.803163431732871104e+05
1.047719999999999985e+01 5.592349054081179202e+05
1.051549999999999940e+01 5.355844525839537382e+05
1.055390000000000050e+01 5.124932245327010751e+05
1.059229999999999983e+01 4.920020078388809925e+05
1.063069999999999915e+01 4.761397965265845996e+05
1.066900000000000048e+01 4.639877005968246958e+05
1.070739999999999981e+01 4.569114772844270919e+05
1.074579999999999913e+01 4.558683691216619918e+05
1.078420000000000023e+01 4.588397400554051274e+05
1.082259999999999955e+01 4.647113630837415112e+05
1.086090000000000089e+01 4.734251127966908971e+05
1.089930000000000021e+01 4.836705260090324446e+05
1.093769999999999953e+01 4.950626810519595165e+05
1.097610000000000063e+01 5.092501491402125685e+05
1.101449999999999996e+01 5.271140958386486163e+05
1.105279999999999951e+01 5.481036821885822574e+05
1.109120000000000061e+01 5.681562118240516866e+05
1.112959999999999994e+01 5.807594820124153048e+05
1.116799999999999926e+01 5.826439341212344589e+05
1.120630000000000059e+01 5.743341793758460553e+05
1.124469999999999992e+01 5.616637399887391366e+05
1.128309999999999924e+01 5.535994790348376846e+05
1.132150000000000034e+01 5.562992741962725995e+05
1.135989999999999966e+01 5.706168641245281324e+05
1.139819999999999922e+01 5.923758857908119680e+05
1.143660000000000032e+01 6.168526663039227715e+05
1.147499999999999964e+01 6.385476692961887456e+05
1.151340000000000074e+01 6.488632600620249286e+05
1.155170000000000030e+01 6.433664892876301892e+05
1.159009999999999962e+01 6.265510086672574980e+05
1.162850000000000072e+01 6.052525911472295411e+05
1.166690000000000005e+01 5.859097571108953562e+05
1.170529999999999937e+01 5.758171124359973473e+05
1.174360000000000070e+01 5.750278073180392385e+05
1.178200000000000003e+01 5.768157007799195126e+05
1.182039999999999935e+01 5.765492587098304648e+05
1.185880000000000045e+01 5.743278538958625868e+05
1.189710000000000001e+01 5.712805949198361486e+05
1.193549999999999933e+01 5.707503990884675877e+05
1.197390000000000043e+01 5.759511461482300656e+05
1.201229999999999976e+01 5.907880985348982504e+05
1.205070000000000086e+01 6.140221988524865592e+05
1.208900000000000041e+01 6.344228333567138761e+05
1.212739999999999974e+01 6.423129112314800732e+05
1.216580000000000084e+01 6.405714508827894460e+05
1.220420000000000016e+01 6.340871162732915254e+05
1.224249999999999972e+01 6.227805467137251981e+05
1.228090000000000082e+01 6.071523066940031713e+05
1.231930000000000014e+01 5.922463093515012879e+05
1.235769999999999946e+01 5.839955281214596471e+05
1.239610000000000056e+01 5.824846504506398924e+05
1.243440000000000012e+01 5.825416926340799546e+05
1.247279999999999944e+01 5.772151310838154750e+05
1.251120000000000054e+01 5.651963530763766030e+05
1.254959999999999987e+01 5.528585435700265225e+05
1.258789999999999942e+01 5.431748479280718602e+05
1.262630000000000052e+01 5.370532788849194767e+05
1.266469999999999985e+01 5.365650759001222905e+05
1.270309999999999917e+01 5.378115495210647350e+05
1.274150000000000027e+01 5.360651399564696476e+05
1.277979999999999983e+01 5.335890531406692462e+05
1.281819999999999915e+01 5.341252055952660739e+05
1.285660000000000025e+01 5.392438024499947205e+05
1.289499999999999957e+01 5.468588539377828129e+05
1.293329999999999913e+01 5.536311106400408316e+05
1.297170000000000023e+01 5.627827715312911896e+05
1.301009999999999955e+01 5.793993457445468521e+05
1.304850000000000065e+01 6.011439260268341750e+05
1.308689999999999998e+01 6.251647193491017679e+05
1.312519999999999953e+01 6.533049754976209952e+05
1.316360000000000063e+01 6.879158516894226195e+05
1.320199999999999996e+01 7.277344755806478206e+05
1.324039999999999928e+01 7.686652716623089509e+05
1.327870000000000061e+01 8.073430814080751734e+05
1.331709999999999994e+01 8.420073987538355868e+05
1.335549999999999926e+01 8.685992942877198802e+05
1.339390000000000036e+01 8.857751729392943671e+05
1.343229999999999968e+01 8.965797032908243127e+05
1.347059999999999924e+01 9.051911234322730452e+05
1.350900000000000034e+01 9.144542556817465229e+05
1.354739999999999966e+01 9.257519981110242661e+05
1.358580000000000076e+01 9.402323101969922427e+05
1.362410000000000032e+01 9.534369325685538352e+05
1.366249999999999964e+01 9.572570978136893827e+05
1.370090000000000074e+01 9.500147051368837710e+05
1.373930000000000007e+01 9.366060162604536163e+05
1.377769999999999939e+01 9.231853750124536455e+05
1.381600000000000072e+01 9.141667654123186367e+05
1.385440000000000005e+01 9.101037830894371727e+05
1.389279999999999937e+01 9.079243260065538343e+05
1.393120000000000047e+01 9.052607197793443920e+05
1.396950000000000003e+01 9.030641978264325298e+05
1.400789999999999935e+01 9.038878231981002027e+05
1.404630000000000045e+01 9.085106923703837674e+05
1.408469999999999978e+01 9.181162260780279757e+05
1.412310000000000088e+01 9.299031483997650212e+05
1.416140000000000043e+01 9.379130223795661004e+05
1.419979999999999976e+01 9.440069636723883450e+05
1.423820000000000086e+01 9.545520533729949966e+05
1.427660000000000018e+01 9.698386277849216713e+05
1.431489999999999974e+01 9.862073218931395095e+05
1.435330000000000084e+01 1.002204788634256460e+06
1.439170000000000016e+01 1.016729952570445486e+06
1.443009999999999948e+01 1.026316958444549353e+06
1.446850000000000058e+01 1.027672990703934454e+06
1.450680000000000014e+01 1.019026055923671229e+06
1.454519999999999946e+01 1.004704611374550499e+06
1.458360000000000056e+01 9.886467064499165863e+05
1.462199999999999989e+01 9.720388373282628600e+05
1.466029999999999944e+01 9.559710405524823582e+05
1.469870000000000054e+01 9.378199968167974148e+05
1.473709999999999987e+01 9.142194916557455435e+05
1.477549999999999919e+01 8.859159143460239284e+05
1.481390000000000029e+01 8.563820904790258501e+05
1.485219999999999985e+01 8.299992989239166491e+05
1.489059999999999917e+01 8.096783386726201279e+05
1.492900000000000027e+01 7.933911074129791232e+05
1.496739999999999959e+01 7.770593464193757391e+05
1.500569999999999915e+01 7.594309619805699913e+05
1.504410000000000025e+01 7.410347294504115125e+05
1.508249999999999957e+01 7.215859651575732278e+05
1.512090000000000067e+01 7.038369314538396429e+05
1.515930000000000000e+01 6.905553041790135903e+05
1.519759999999999955e+01 6.819091683250525966e+05
1.523600000000000065e+01 6.765590580652484205e+05
1.527439999999999998e+01 6.697923666584714083e+05
