# energy(eV) alpha
0.000000000000000000e+00 0.000000000000000000e+00
3.780000000000000027e-02 4.171916847632383685e-01
7.560000000000000053e-02 1.877288368377727279e+00
1.134000000000000008e-01 4.067216979051819337e+00
1.512000000000000011e-01 7.090962274167742052e+00
1.890000000000000013e-01 1.146942786816425119e+01
2.268000000000000016e-01 1.626356558740886982e+01
2.646000000000000019e-01 2.188991123039860298e+01
3.024000000000000021e-01 2.918107544988305690e+01
3.402000000000000024e-01 3.657316474021991581e+01
3.780000000000000027e-01 4.479434959310877673e+01
4.158000000000000029e-01 5.498947054772887100e+01
4.536000000000000032e-01 6.496931215197847109e+01
4.913000000000000145e-01 7.711181739886089304e+01
5.291000000000000147e-01 8.884311176890835782e+01
5.668999999999999595e-01 1.029562745631203882e+02
6.047000000000000153e-01 1.180963431609577441e+02
6.424999999999999600e-01 1.324938066991666972e+02
6.803000000000000158e-01 1.495767804608699976e+02
7.180999999999999606e-01 1.676793726573096137e+02
7.559000000000000163e-01 1.847224336301198093e+02
7.936999999999999611e-01 2.047532139989914413e+02
8.315000000000000169e-01 2.257930240582635406e+02
8.692999999999999616e-01 2.478405287489111117e+02
9.071000000000000174e-01 2.708924504471423234e+02
9.448999999999999622e-01 2.949439433096092671e+02
9.827000000000000179e-01 3.199895506027908709e+02
1.020499999999999963e+00 3.488187406986926931e+02
1.058300000000000018e+00 3.759461279061098935e+02
1.096100000000000074e+00 4.040563214561068435e+02
1.133899999999999908e+00 4.362386813257770655e+02
1.171699999999999964e+00 4.663991740612300987e+02
1.209500000000000020e+00 5.008252238605550133e+02
1.247300000000000075e+00 5.364125591957174493e+02
1.285099999999999909e+00 5.731547761604496145e+02
1.322899999999999965e+00 6.110452788993455897e+02
1.360700000000000021e+00 6.500803927310588506e+02
1.398500000000000076e+00 6.902504143023630832e+02
1.436299999999999910e+00 7.315447281187975932e+02
1.473999999999999977e+00 7.778994973938489466e+02
1.511800000000000033e+00 8.215191753650057080e+02
1.549600000000000088e+00 8.704318931551165406e+02
1.587399999999999922e+00 9.206272214766870547e+02
1.625199999999999978e+00 9.720993031262158866e+02
1.663000000000000034e+00 1.024842995690461066e+03
1.700800000000000090e+00 1.083410050646108402e+03
1.738599999999999923e+00 1.143409342196269108e+03
1.776399999999999979e+00 1.200077368325728230e+03
1.814200000000000035e+00 1.262808946152917315e+03
1.852000000000000091e+00 1.331892120944504313e+03
1.889799999999999924e+00 1.397493031337950242e+03
1.927599999999999980e+00 1.469592599820936584e+03
1.965400000000000036e+00 1.543223575624589785e+03
2.003200000000000092e+00 1.620144165478751120e+03
2.040999999999999925e+00 1.700429639958087364e+03
2.078800000000000203e+00 1.784129621427096708e+03
2.116600000000000037e+00 1.869473275335366452e+03
2.154399999999999871e+00 1.962111254025775452e+03
2.192200000000000149e+00 2.056514062501522403e+03
2.229999999999999982e+00 2.152648741281032017e+03
2.267799999999999816e+00 2.256444072928342848e+03
2.305600000000000094e+00 2.362085981173648179e+03
2.343399999999999928e+00 2.475684661765668807e+03
2.381200000000000205e+00 2.591222756167151147e+03
2.419000000000000039e+00 2.714989250697509306e+03
2.456700000000000106e+00 2.840682346240467268e+03
2.494499999999999940e+00 2.974947274394591659e+03
2.532300000000000217e+00 3.117881959550544252e+03
2.570100000000000051e+00 3.263045304701048735e+03
2.607899999999999885e+00 3.417104831299442139e+03
2.645700000000000163e+00 3.580224972080233329e+03
2.683499999999999996e+00 3.752575463849766038e+03
2.721299999999999830e+00 3.934300837035806126e+03
2.759100000000000108e+00 4.125603403632127993e+03
2.796899999999999942e+00 4.326594508483134632e+03
2.834700000000000220e+00 4.537389151285400658e+03
2.872500000000000053e+00 4.765361900675336074e+03
2.910299999999999887e+00 5.003516903099501178e+03
2.948100000000000165e+00 5.259348494220876091e+03
2.985899999999999999e+00 5.533041603711731113e+03
3.023699999999999832e+00 5.824929886552240532e+03
3.061500000000000110e+00 6.135216488189048505e+03
3.099299999999999944e+00 6.476854124072778177e+03
3.137100000000000222e+00 6.842493365909763270e+03
3.174900000000000055e+00 7.240227395230947877e+03
3.212699999999999889e+00 7.678186164304819613e+03
3.250500000000000167e+00 8.156843069329605896e+03
3.288300000000000001e+00 8.697679925170299612e+03
3.326099999999999834e+00 9.301428712509985417e+03
3.363900000000000112e+00 9.989928670919503929e+03
3.401699999999999946e+00 1.079627908683357236e+04
3.439400000000000013e+00 1.175376877564924689e+04
3.477199999999999847e+00 1.293527706485706040e+04
3.515000000000000124e+00 1.443889698447250157e+04
3.552799999999999958e+00 1.638795556467105780e+04
3.590599999999999792e+00 1.880644245647008938e+04
3.628400000000000070e+00 2.136172836349716454e+04
3.666199999999999903e+00 2.379798983977017269e+04
3.704000000000000181e+00 2.684448727033123942e+04
3.741800000000000015e+00 3.122996227792012360e+04
3.779599999999999849e+00 3.647963752499676775e+04
3.817400000000000126e+00 4.122930868756214477e+04
3.855199999999999960e+00 4.552339818291091797e+04
3.892999999999999794e+00 5.101539426133896632e+04
3.930800000000000072e+00 5.753881324987296830e+04
3.968599999999999905e+00 6.254147161657117249e+04
4.006400000000000183e+00 6.487841662345963414e+04
4.044200000000000017e+00 6.672564270109598874e+04
4.081999999999999851e+00 6.864661504724928818e+04
4.119799999999999685e+00 7.022262822341296123e+04
4.157600000000000406e+00 7.307534250114487077e+04
4.195400000000000240e+00 7.939440998758721980e+04
4.233200000000000074e+00 8.965230437089617772e+04
4.270999999999999908e+00 1.018490102717999544e+05
4.308799999999999741e+00 1.141037358649062808e+05
4.346599999999999575e+00 1.254793856655728450e+05
4.384400000000000297e+00 1.342293687074495538e+05
4.422100000000000364e+00 1.406180070811193727e+05
4.459900000000000198e+00 1.471583060243905929e+05
4.497700000000000031e+00 1.567147317328928038e+05
4.535499999999999865e+00 1.703272646564524330e+05
4.573299999999999699e+00 1.879331560319322743e+05
4.611100000000000421e+00 2.095941101755655254e+05
4.648900000000000254e+00 2.355178880144707800e+05
4.686700000000000088e+00 2.660551291389645776e+05
4.724499999999999922e+00 3.008569606657736003e+05
4.762299999999999756e+00 3.377393175454972661e+05
4.800099999999999589e+00 3.671840710215913714e+05
4.837900000000000311e+00 3.789180813295202097e+05
4.875700000000000145e+00 3.760364383264684002e+05
4.913499999999999979e+00 3.744571764253214933e+05
4.951299999999999812e+00 3.859393219638902228e+05
4.989099999999999646e+00 4.129903033518928569e+05
5.026900000000000368e+00 4.529927000734725152e+05
5.064700000000000202e+00 5.003697236640757765e+05
5.102500000000000036e+00 5.459365868975208141e+05
5.140299999999999869e+00 5.819364958080529468e+05
5.178099999999999703e+00 6.035786795105364872e+05
5.215900000000000425e+00 6.151525545094006229e+05
5.253700000000000259e+00 6.251535980220341589e+05
5.291500000000000092e+00 6.344045243584124837e+05
5.329299999999999926e+00 6.377515543537383201e+05
5.367099999999999760e+00 6.388320226428450551e+05
5.404799999999999827e+00 6.480285397317896131e+05
5.442599999999999660e+00 6.662830602155651432e+05
5.480400000000000382e+00 6.849225046657613711e+05
5.518200000000000216e+00 6.963874176301091211e+05
5.556000000000000050e+00 6.956872783410832053e+05
5.593799999999999883e+00 6.829492401506602764e+05
5.631599999999999717e+00 6.651291489216177724e+05
5.669400000000000439e+00 6.504651057280531386e+05
5.707200000000000273e+00 6.418070539290230954e+05
5.745000000000000107e+00 6.373853095092085423e+05
5.782799999999999940e+00 6.351609756594899809e+05
5.820599999999999774e+00 6.343667717039036797e+05
5.858399999999999608e+00 6.328569652861269424e+05
5.896200000000000330e+00 6.313967675898002926e+05
5.934000000000000163e+00 6.336527357634627260e+05
5.971799999999999997e+00 6.390869396011497593e+05
6.009599999999999831e+00 6.441227938900954323e+05
6.047399999999999665e+00 6.503740380079454044e+05
6.085200000000000387e+00 6.645747105070068501e+05
6.123000000000000220e+00 6.894694526472568978e+05
6.160800000000000054e+00 7.155797364858735818e+05
6.198599999999999888e+00 7.284186094013274414e+05
6.236399999999999721e+00 7.294344039410252590e+05
6.274200000000000443e+00 7.312974161387733184e+05
6.312000000000000277e+00 7.406998675923573319e+05
6.349800000000000111e+00 7.557642258289977908e+05
6.387500000000000178e+00 7.739176634923501406e+05
6.425300000000000011e+00 7.936948755274069263e+05
6.463099999999999845e+00 8.152736370164360851e+05
6.500899999999999679e+00 8.386310164723902708e+05
6.538700000000000401e+00 8.594821113068873528e+05
6.576500000000000234e+00 8.715015056279706769e+05
6.614300000000000068e+00 8.744730177034185035e+05
6.652099999999999902e+00 8.744656144702230813e+05
6.689899999999999736e+00 8.747793259202364134e+05
6.727699999999999569e+00 8.809245817139289575e+05
6.765500000000000291e+00 8.983441643710561329e+05
6.803300000000000125e+00 9.201441847709153080e+05
6.841099999999999959e+00 9.350264050197305623e+05
6.878899999999999793e+00 9.433861155487080105e+05
6.916699999999999626e+00 9.529012367396207992e+05
6.954500000000000348e+00 9.666936601687798975e+05
6.992300000000000182e+00 9.845470957752764225e+05
7.030100000000000016e+00 1.005692099144907086e+06
7.067899999999999849e+00 1.025562753675629036e+06
7.105699999999999683e+00 1.036290792056826060e+06
7.143500000000000405e+00 1.031794371560545289e+06
7.181300000000000239e+00 1.015796160418301355e+06
7.219100000000000072e+00 9.947061009021889186e+05
7.256899999999999906e+00 9.706223125749357278e+05
7.294699999999999740e+00 9.460103125914153643e+05
7.332499999999999574e+00 9.248675540893039433e+05
7.370199999999999640e+00 9.091483748679859564e+05
7.408000000000000362e+00 8.966765382523047738e+05
7.445800000000000196e+00 8.878357894249084638e+05
7.483600000000000030e+00 8.864506059181374731e+05
7.521399999999999864e+00 8.922483054303084500e+05
7.559199999999999697e+00 9.042386167406528257e+05
7.597000000000000419e+00 9.198169852230889956e+05
7.634800000000000253e+00 9.319521774153908482e+05
7.672600000000000087e+00 9.338417158566182479e+05
7.710399999999999920e+00 9.231323681455991464e+05
7.748199999999999754e+00 9.005653997829918517e+05
7.785999999999999588e+00 8.690621870495821349e+05
7.823800000000000310e+00 8.352477253961159149e+05
7.861600000000000144e+00 8.065208571786176180e+05
7.899399999999999977e+00 7.856701816311127041e+05
7.937199999999999811e+00 7.718816999919100199e+05
7.974999999999999645e+00 7.658005610923606437e+05
8.012800000000000367e+00 7.689559047745161224e+05
8.050599999999999312e+00 7.811285282055970747e+05
8.088400000000000034e+00 7.972792756183687598e+05
8.126200000000000756e+00 8.119571619793788996e+05
8.163999999999999702e+00 8.232523394124126062e+05
8.201800000000000423e+00 8.271165531771859387e+05
8.239599999999999369e+00 8.278669300095780054e+05
8.277400000000000091e+00 8.359655105020395713e+05
8.315200000000000813e+00 8.528076550183997024e+05
8.352899999999999991e+00 8.709984224456461379e+05
8.390700000000000713e+00 8.833184536085732980e+05
8.428499999999999659e+00 8.898370505007363390e+05
8.466300000000000381e+00 8.951539152050676057e+05
8.504099999999999326e+00 8.996438395153507590e+05
8.541900000000000048e+00 9.007023570213952335e+05
8.579700000000000770e+00 8.950857382293238770e+05
8.617499999999999716e+00 8.816874228725250578e+05
8.655300000000000438e+00 8.660872103765222710e+05
8.693099999999999383e+00 8.551424686371730641e+05
8.730900000000000105e+00 8.498130393139397493e+05
8.768700000000000827e+00 8.455380896176549140e+05
8.806499999999999773e+00 8.389258264438823098e+05
8.844300000000000495e+00 8.367424322650125250e+05
8.882099999999999440e+00 8.451950411874754354e+05
8.919900000000000162e+00 8.556780810000040801e+05
8.957700000000000884e+00 8.587870466706416337e+05
8.995499999999999829e+00 8.540486777901396854e+05
9.033300000000000551e+00 8.446474471590189496e+05
9.071099999999999497e+00 8.307868905896182405e+05
9.108900000000000219e+00 8.142995960971047170e+05
9.146699999999999164e+00 7.986214034224065254e+05
9.184499999999999886e+00 7.808064400300822454e+05
9.222300000000000608e+00 7.578857469411372440e+05
9.260099999999999554e+00 7.340378377287496114e+05
9.297900000000000276e+00 7.146707473661596887e+05
9.335599999999999454e+00 7.025006871134601533e+05
9.373400000000000176e+00 6.989150475017821882e+05
9.411199999999999122e+00 7.052878710986064980e+05
9.448999999999999844e+00 7.205793516511264024e+05
9.486800000000000566e+00 7.368087243387297494e+05
9.524599999999999511e+00 7.476881287625902332e+05
9.562400000000000233e+00 7.560894254517790396e+05
9.600199999999999179e+00 7.638293800339476438e+05
9.637999999999999901e+00 7.660501496398248710e+05
9.675800000000000622e+00 7.593945916197890183e+05
9.713599999999999568e+00 7.470750079410150647e+05
9.751400000000000290e+00 7.318665915387207642e+05
9.789199999999999235e+00 7.157722501954711042e+05
9.826999999999999957e+00 7.047765745456075529e+05
9.864800000000000679e+00 7.026661056480233092e+05
9.902599999999999625e+00 7.051514391791264061e+05
9.940400000000000347e+00 7.046176600967512932e+05
9.978199999999999292e+00 7.025026922521227971e+05
1.001600000000000001e+01 7.067287675371458754e+05
1.005380000000000074e+01 7.153644731698365649e+05
1.009159999999999968e+01 7.178147232179723214e+05
1.012940000000000040e+01 7.088989122478889767e+05
1.016719999999999935e+01 6.943018822692572139e+05
1.020500000000000007e+01 6.845076838554923888e+05
1.024280000000000079e+01 6.837609368809015723e+05
1.028059999999999974e+01 6.879151952213569311e+05
1.031830000000000069e+01 6.911609885042875540e+05
1.035609999999999964e+01 6.935322842400287045e+05
1.039390000000000036e+01 6.974162079763030633e+05
1.043169999999999931e+01 7.031859959059321554e+05
1.046950000000000003e+01 7.113509319240897894e+05
1.050730000000000075e+01 7.236704803694456350e+05
1.054509999999999970e+01 7.381065763560844352e+05
1.058290000000000042e+01 7.507517129987803055e+05
1.062069999999999936e+01 7.613631148633023258e+05
1.065850000000000009e+01 7.723286496305993060e+05
1.069630000000000081e+01 7.863662392427063314e+05
1.073409999999999975e+01 8.029290147913200781e+05
1.077190000000000047e+01 8.159892669271073537e+05
1.080969999999999942e+01 8.230154579448481090e+05
1.084750000000000014e+01 8.274552204272224335e+05
1.088530000000000086e+01 8.341144115229389863e+05
1.092309999999999981e+01 8.450796307299823966e+05
1.096090000000000053e+01 8.579679564138187561e+05
1.099869999999999948e+01 8.706834739337778883e+05
1.103650000000000020e+01 8.844022001927549718e+05
1.107429999999999914e+01 9.012062119922207203e+05
1.111209999999999987e+01 9.186949445034693927e+05
1.114990000000000059e+01 9.344162976551996544e+05
1.118769999999999953e+01 9.478863409656729782e+05
1.122550000000000026e+01 9.564661278752870858e+05
1.126329999999999920e+01 9.602834993236642331e+05
1.130100000000000016e+01 9.633204513389464701e+05
1.133880000000000088e+01 9.659878624022825388e+05
1.137659999999999982e+01 9.634377666495048907e+05
1.141440000000000055e+01 9.548861817758091493e+05
1.145219999999999949e+01 9.428344518288876861e+05
1.149000000000000021e+01 9.268676934448364191e+05
1.152779999999999916e+01 9.086481321414842969e+05
1.156559999999999988e+01 8.913486680547314463e+05
1.160340000000000060e+01 8.758222501381136244e+05
1.164119999999999955e+01 8.625558171293055639e+05
1.167900000000000027e+01 8.515304419834135333e+05
1.171679999999999922e+01 8.405684640184895834e+05
1.175459999999999994e+01 8.289274293940631906e+05
1.179240000000000066e+01 8.170977486048719147e+05
1.183019999999999960e+01 8.067555933634532848e+05
1.186800000000000033e+01 7.984532635611074511e+05
1.190579999999999927e+01 7.914582088832830777e+05
1.194359999999999999e+01 7.842857029714790406e+05
1.198140000000000072e+01 7.753430668264363194e+05
1.201919999999999966e+01 7.643335980923926691e+05
1.205700000000000038e+01 7.550602083013115916e+05
1.209479999999999933e+01 7.529070844094093191e+05
1.213260000000000005e+01 7.573292995166369947e+05
1.217040000000000077e+01 7.636117404787583509e+05
1.220819999999999972e+01 7.693270672040972859e+05
1.224600000000000044e+01 7.745880835479983361e+05
1.228369999999999962e+01 7.769423875764328986e+05
1.232150000000000034e+01 7.712584831591270631e+05
1.235929999999999929e+01 7.566235185442102375e+05
1.239710000000000001e+01 7.367253051566053182e+05
1.243490000000000073e+01 7.169006987268271623e+05
1.247269999999999968e+01 7.004888746152241947e+05
1.251050000000000040e+01 6.863433151405362878e+05
1.254829999999999934e+01 6.750641498512024991e+05
1.258610000000000007e+01 6.699751754486068385e+05
1.262390000000000079e+01 6.718470056774491677e+05
1.266169999999999973e+01 6.793239595896580722e+05
1.269950000000000045e+01 6.919611071375841275e+05
1.273729999999999940e+01 7.081804617265457055e+05
1.277510000000000012e+01 7.238101318667471642e+05
1.281290000000000084e+01 7.347035952878604876e+05
1.285069999999999979e+01 7.398165650287199533e+05
1.288850000000000051e+01 7.420968274943915894e+05
1.292629999999999946e+01 7.463042360477054026e+05
1.296410000000000018e+01 7.523353002986533102e+05
1.300189999999999912e+01 7.546278397283795057e+05
1.303969999999999985e+01 7.500286677360843169e+05
1.307750000000000057e+01 7.423834329807525501e+05
1.311529999999999951e+01 7.366828695298989769e+05
1.315310000000000024e+01 7.308339772947592428e+05
1.319089999999999918e+01 7.215255250255587744e+05
1.322869999999999990e+01 7.095734113269315567e+05
1.326640000000000086e+01 6.983906916088312864e+05
1.330419999999999980e+01 6.910950811371457530e+05
1.334200000000000053e+01 6.890463594515677541e+05
1.337979999999999947e+01 6.916020355894444510e+05
1.341760000000000019e+01 6.971732349354655016e+05
1.345539999999999914e+01 7.063615578997764969e+05
1.349319999999999986e+01 7.227379161452752305e+05
1.353100000000000058e+01 7.475552441593924304e+05
1.356879999999999953e+01 7.801940483210221864e+05
1.360660000000000025e+01 8.176658172797492007e+05
1.364439999999999920e+01 8.565130861860747682e+05
1.368219999999999992e+01 8.916315055597944884e+05
1.372000000000000064e+01 9.175619997806209140e+05
1.375779999999999959e+01 9.376942134706331417e+05
1.379560000000000031e+01 9.584855329646778991e+05
1.383339999999999925e+01 9.770604106720684795e+05
1.387119999999999997e+01 9.898495440629707882e+05
1.390900000000000070e+01 9.978152935167655814e+05
1.394679999999999964e+01 1.003857079297755030e+06
1.398460000000000036e+01 1.012541246338434285e+06
1.402239999999999931e+01 1.028891159328886191e+06
1.406020000000000003e+01 1.055094026770611526e+06
1.409800000000000075e+01 1.094723199597139610e+06
1.413579999999999970e+01 1.146853371289592469e+06
1.417360000000000042e+01 1.202772508788755396e+06
1.421139999999999937e+01 1.254393424266002141e+06
1.424910000000000032e+01 1.294028250525337411e+06
1.428689999999999927e+01 1.314529937428300502e+06
1.432469999999999999e+01 1.316609576434754999e+06
1.436250000000000071e+01 1.302528157032244839e+06
1.440029999999999966e+01 1.279044873057674151e+06
1.443810000000000038e+01 1.255711123185764998e+06
1.447589999999999932e+01 1.234232180500777904e+06
1.451370000000000005e+01 1.209632474190958776e+06
1.455150000000000077e+01 1.179998929931685096e+06
1.458929999999999971e+01 1.149048176227376331e+06
1.462710000000000043e+01 1.121275093943130923e+06
1.466489999999999938e+01 1.098527983320101630e+06
1.470270000000000010e+01 1.080432201616832986e+06
1.474050000000000082e+01 1.066559481700416654e+06
1.477829999999999977e+01 1.056372949487365317e+06
1.481610000000000049e+01 1.048149501511521521e+06
1.485389999999999944e+01 1.037496892682022182e+06
1.489170000000000016e+01 1.021170165052877041e+06
1.492950000000000088e+01 9.976561712636392331e+05
1.496729999999999983e+01 9.679917309336207109e+05
1.500510000000000055e+01 9.356459319907794707e+05
1.504289999999999949e+01 9.049610940084333997e+05
