# energy(eV) alpha
0.000000000000000000e+00 0.000000000000000000e+00
4.080000000000000293e-02 3.636392826961880598e-01
8.160000000000000586e-02 1.212110110854979883e+00
1.223999999999999949e-01 2.908914298830833189e+00
1.632000000000000117e-01 5.332643023526228099e+00
2.039999999999999869e-01 7.877091466447371459e+00
2.447999999999999898e-01 1.163272583579712816e+01
2.857000000000000095e-01 1.611987726278515254e+01
3.265000000000000124e-01 2.035814661515483337e+01
3.673000000000000154e-01 2.616982640058359877e+01
4.081000000000000183e-01 3.270578029690476995e+01
4.489000000000000212e-01 3.863312376409263749e+01
4.897000000000000242e-01 4.649384997668783370e+01
5.304999999999999716e-01 5.507691771741461650e+01
5.713000000000000300e-01 6.268635890570924118e+01
6.120999999999999774e-01 7.258894908854576045e+01
6.529000000000000359e-01 8.321027165888951060e+01
6.936999999999999833e-01 9.454915864298885708e+01
7.345000000000000417e-01 1.066043709948446292e+02
7.753999999999999782e-01 1.193879584171451995e+02
8.162000000000000366e-01 1.304566152830705903e+02
8.569999999999999840e-01 1.445310322500682503e+02
8.978000000000000425e-01 1.593157401102240840e+02
9.385999999999999899e-01 1.748091233598321139e+02
9.794000000000000483e-01 1.910062519357509814e+02
1.020199999999999996e+00 2.079115858916540560e+02
1.060999999999999943e+00 2.255165085170357884e+02
1.101799999999999891e+00 2.438223517012492039e+02
1.142600000000000060e+00 2.661922014421887184e+02
1.183400000000000007e+00 2.860119837275073564e+02
1.224199999999999955e+00 3.065211802256420697e+02
1.264999999999999902e+00 3.277165623679629789e+02
1.305900000000000061e+00 3.534754492796756722e+02
1.346700000000000008e+00 3.761604413450720585e+02
1.387499999999999956e+00 4.036077348609636033e+02
1.428299999999999903e+00 4.277714354384975195e+02
1.469100000000000072e+00 4.569233939995870628e+02
1.509900000000000020e+00 4.825482603124023626e+02
1.550699999999999967e+00 5.133876313250560770e+02
1.591499999999999915e+00 5.451183124391768615e+02
1.632300000000000084e+00 5.777383391476172392e+02
1.673100000000000032e+00 6.112463227928877814e+02
1.713899999999999979e+00 6.456379219410374617e+02
1.754699999999999926e+00 6.809049426353857370e+02
1.795600000000000085e+00 7.170782673035176913e+02
1.836400000000000032e+00 7.540733549195487058e+02
1.877199999999999980e+00 7.919361337193106465e+02
1.917999999999999927e+00 8.362235105680816787e+02
1.958800000000000097e+00 8.815801275221992910e+02
1.999600000000000044e+00 9.221985295613429798e+02
2.040399999999999991e+00 9.695590129202583967e+02
2.081199999999999939e+00 1.017966208655608284e+03
2.121999999999999886e+00 1.067412184032663163e+03
2.162799999999999834e+00 1.117888870171987946e+03
2.203599999999999781e+00 1.175743380040296188e+03
2.244400000000000173e+00 1.228366474509077761e+03
2.285200000000000120e+00 1.288548338476678282e+03
2.326099999999999834e+00 1.350000592077893543e+03
2.366899999999999782e+00 1.412598625337907833e+03
2.407700000000000173e+00 1.476364912921562791e+03
2.448500000000000121e+00 1.541310675507834731e+03
2.489300000000000068e+00 1.614512066999559011e+03
2.530100000000000016e+00 1.689054690194560180e+03
2.570899999999999963e+00 1.764922762601823479e+03
2.611699999999999910e+00 1.842129317395433418e+03
2.652499999999999858e+00 1.928132965774738068e+03
2.693299999999999805e+00 2.015619909261835573e+03
2.734100000000000197e+00 2.104571619146390276e+03
2.774900000000000144e+00 2.202785601861676696e+03
2.815799999999999859e+00 2.302685040041515094e+03
2.856599999999999806e+00 2.404097101595218646e+03
2.897400000000000198e+00 2.515205193223432616e+03
2.938200000000000145e+00 2.628002153946023554e+03
2.979000000000000092e+00 2.750819717714361559e+03
3.019800000000000040e+00 2.875457768900208521e+03
3.060599999999999987e+00 3.010409128692997456e+03
3.101399999999999935e+00 3.155922567426579917e+03
3.142199999999999882e+00 3.303508168846144599e+03
3.182999999999999829e+00 3.461879614506799953e+03
3.223800000000000221e+00 3.631261214622862553e+03
3.264600000000000168e+00 3.811888833212421559e+03
3.305400000000000116e+00 4.003916071656723943e+03
3.346299999999999830e+00 4.207604658722297245e+03
3.387100000000000222e+00 4.432184692967530282e+03
3.427900000000000169e+00 4.668805430283313399e+03
3.468700000000000117e+00 4.936369928072099356e+03
3.509500000000000064e+00 5.216498399011524270e+03
3.550300000000000011e+00 5.528363685548511967e+03
3.591099999999999959e+00 5.872466904755260657e+03
3.631899999999999906e+00 6.258909992735253581e+03
3.672699999999999854e+00 6.698080648866910451e+03
3.713499999999999801e+00 7.200475830839954142e+03
3.754300000000000193e+00 7.786650766398159249e+03
3.795100000000000140e+00 8.487522112088994618e+03
3.835900000000000087e+00 9.354611860413098839e+03
3.876799999999999802e+00 1.046419502563345668e+04
3.917600000000000193e+00 1.195088614236130343e+04
3.958400000000000141e+00 1.398474452434673003e+04
3.999200000000000088e+00 1.664796040073737458e+04
4.040000000000000036e+00 1.948197032155123088e+04
4.080799999999999983e+00 2.212985094199447485e+04
4.121599999999999930e+00 2.574870858845296607e+04
4.162399999999999878e+00 3.116509282104714657e+04
4.203199999999999825e+00 3.665913212714553811e+04
4.243999999999999773e+00 4.009597714587255905e+04
4.284799999999999720e+00 4.385129417597981228e+04
4.325599999999999667e+00 5.006995227220964443e+04
4.366500000000000270e+00 5.664705470490150765e+04
4.407300000000000217e+00 6.002302061947327456e+04
4.448100000000000165e+00 6.040303209265248734e+04
4.488900000000000112e+00 6.219880930261038156e+04
4.529700000000000060e+00 6.485776037127985182e+04
4.570500000000000007e+00 6.472059570910383627e+04
4.611299999999999955e+00 6.453832679897850176e+04
4.652099999999999902e+00 6.648940172389592044e+04
4.692899999999999849e+00 7.111767063770887034e+04
4.733699999999999797e+00 8.097125179476231278e+04
4.774499999999999744e+00 9.431839392201506416e+04
4.815299999999999692e+00 1.039696612402544997e+05
4.856099999999999639e+00 1.072074497792375914e+05
4.897000000000000242e+00 1.065293809524651297e+05
4.937800000000000189e+00 1.033317413712152193e+05
4.978600000000000136e+00 9.869855107540138124e+04
5.019400000000000084e+00 9.487674177551298635e+04
5.060200000000000031e+00 9.465619859145555529e+04
5.100999999999999979e+00 1.000665508261293144e+05
5.141799999999999926e+00 1.108822110522189469e+05
5.182599999999999874e+00 1.240187996213860024e+05
5.223399999999999821e+00 1.352017367872551258e+05
5.264199999999999768e+00 1.447546883639276493e+05
5.304999999999999716e+00 1.523741446091276011e+05
5.345799999999999663e+00 1.576428428157369490e+05
5.386700000000000266e+00 1.626510601925674418e+05
5.427500000000000213e+00 1.680622737282390008e+05
5.468300000000000161e+00 1.740317931305394741e+05
5.509100000000000108e+00 1.831090817793821043e+05
5.549900000000000055e+00 1.978885527100138424e+05
5.590700000000000003e+00 2.194292567861440766e+05
5.631499999999999950e+00 2.460048562930235348e+05
5.672299999999999898e+00 2.747748322490236023e+05
5.713099999999999845e+00 3.047860156426567119e+05
5.753899999999999793e+00 3.355599805256780819e+05
5.794699999999999740e+00 3.662004855063816649e+05
5.835499999999999687e+00 3.928349006279661553e+05
5.876299999999999635e+00 4.137245126460323809e+05
5.917200000000000237e+00 4.224697430369430222e+05
5.958000000000000185e+00 4.173358985458117677e+05
5.998800000000000132e+00 4.122326039542020299e+05
6.039600000000000080e+00 4.197571572178008500e+05
6.080400000000000027e+00 4.450323652461249731e+05
6.121199999999999974e+00 4.872560870324250427e+05
6.161999999999999922e+00 5.338754432471900946e+05
6.202799999999999869e+00 5.766573837261203444e+05
6.243599999999999817e+00 6.205710284300297499e+05
6.284399999999999764e+00 6.616732916276976466e+05
6.325199999999999712e+00 6.874837891982473666e+05
6.365999999999999659e+00 6.937669975320848171e+05
6.406900000000000261e+00 6.876386644672297407e+05
6.447700000000000209e+00 6.838636979228677228e+05
6.488500000000000156e+00 7.002385804067795398e+05
6.529300000000000104e+00 7.395043439475158229e+05
6.570100000000000051e+00 7.815386234631467378e+05
6.610899999999999999e+00 8.056922848324760562e+05
6.651699999999999946e+00 8.127282804680458503e+05
6.692499999999999893e+00 8.120215718673779629e+05
6.733299999999999841e+00 8.089511196760721505e+05
6.774099999999999788e+00 8.060927510450831614e+05
6.814899999999999736e+00 8.018881581902842736e+05
6.855699999999999683e+00 7.912258213830973255e+05
6.896499999999999631e+00 7.763232496191165410e+05
6.937400000000000233e+00 7.621630672570192255e+05
6.978200000000000180e+00 7.482818567677672254e+05
7.019000000000000128e+00 7.298165603774712654e+05
7.059800000000000075e+00 7.123730533328532474e+05
7.100600000000000023e+00 7.032554554827789543e+05
7.141399999999999970e+00 6.998992112768971128e+05
7.182199999999999918e+00 7.011002644293900812e+05
7.222999999999999865e+00 7.004396485727623804e+05
7.263799999999999812e+00 6.899472480350371916e+05
7.304599999999999760e+00 6.792710524327356834e+05
7.345399999999999707e+00 6.800448620576419635e+05
7.386199999999999655e+00 6.934232241654557874e+05
7.427100000000000257e+00 7.150116570154509973e+05
7.467900000000000205e+00 7.343174094181617256e+05
7.508700000000000152e+00 7.457615640924572945e+05
7.549500000000000099e+00 7.436642326515973546e+05
7.590300000000000047e+00 7.229811851720445557e+05
7.631099999999999994e+00 6.873151294126671273e+05
7.671899999999999942e+00 6.486465835964767030e+05
7.712699999999999889e+00 6.235210456067787018e+05
7.753499999999999837e+00 6.165280607360461727e+05
7.794299999999999784e+00 6.185626481708188076e+05
7.835099999999999731e+00 6.283446948901847936e+05
7.875899999999999679e+00 6.516570257513859542e+05
7.916699999999999626e+00 6.854817529839025810e+05
7.957600000000000229e+00 7.218985731045220746e+05
7.998400000000000176e+00 7.546312175451837247e+05
8.039199999999999235e+00 7.761251180626384448e+05
8.080000000000000071e+00 7.931349987778180512e+05
8.120799999999999130e+00 8.197932169986692024e+05
8.161599999999999966e+00 8.544775350639964454e+05
8.202400000000000801e+00 8.863492029814673588e+05
8.243199999999999861e+00 9.177030079580178717e+05
8.284000000000000696e+00 9.581620145392142003e+05
8.324799999999999756e+00 1.014842019192907843e+06
8.365600000000000591e+00 1.084517456634289585e+06
8.406399999999999650e+00 1.147795837889121845e+06
8.447300000000000253e+00 1.181400041655140463e+06
8.488099999999999312e+00 1.175237623367639491e+06
8.528900000000000148e+00 1.144514355633787345e+06
8.569699999999999207e+00 1.103935957744541578e+06
8.610500000000000043e+00 1.056142492771675810e+06
8.651300000000000878e+00 1.008081642365128384e+06
8.692099999999999937e+00 9.673327847711495124e+05
8.732900000000000773e+00 9.312359925463506952e+05
8.773699999999999832e+00 8.956506806443793466e+05
8.814500000000000668e+00 8.601633059893768514e+05
8.855299999999999727e+00 8.217090294519071467e+05
8.896100000000000563e+00 7.835678709588189377e+05
8.936899999999999622e+00 7.577637525152985472e+05
8.977800000000000225e+00 7.554129893140778877e+05
9.018599999999999284e+00 7.716934760820242809e+05
9.059400000000000119e+00 7.878179736593720736e+05
9.100199999999999179e+00 8.002541836624226999e+05
9.141000000000000014e+00 8.146897071124748327e+05
9.181800000000000850e+00 8.319455106035588542e+05
9.222599999999999909e+00 8.548058265639648307e+05
9.263400000000000745e+00 8.834216716819058638e+05
9.304199999999999804e+00 9.096996149586670799e+05
9.345000000000000639e+00 9.249123159599795472e+05
9.385799999999999699e+00 9.285200375384675572e+05
9.426600000000000534e+00 9.214683360904237488e+05
9.467499999999999361e+00 9.011178146669990383e+05
9.508300000000000196e+00 8.701029103340388974e+05
9.549099999999999255e+00 8.358596568612896372e+05
9.589900000000000091e+00 8.051742074306318536e+05
9.630699999999999150e+00 7.822306098335805582e+05
9.671499999999999986e+00 7.633024494366606232e+05
9.712300000000000821e+00 7.441900142065740656e+05
9.753099999999999881e+00 7.248191881049666554e+05
9.793900000000000716e+00 7.109695276665394194e+05
9.834699999999999775e+00 7.100847179170029704e+05
9.875500000000000611e+00 7.209582870006405283e+05
9.916299999999999670e+00 7.368777417226226535e+05
9.957100000000000506e+00 7.514338592165121809e+05
9.997999999999999332e+00 7.547775539575517178e+05
1.003880000000000017e+01 7.435723009071977576e+05
1.007959999999999923e+01 7.222580913648655405e+05
1.012040000000000006e+01 7.028526252823835239e+05
1.016119999999999912e+01 6.961030383415793767e+05
1.020199999999999996e+01 7.028368528876468772e+05
1.024280000000000079e+01 7.198392243024050258e+05
1.028359999999999985e+01 7.408910707133678952e+05
1.032440000000000069e+01 7.586904916338024195e+05
1.036519999999999975e+01 7.666647542681382038e+05
1.040600000000000058e+01 7.646045121236004634e+05
1.044679999999999964e+01 7.590229255710766884e+05
1.048770000000000024e+01 7.533993385293378960e+05
1.052849999999999930e+01 7.418708524279183475e+05
1.056930000000000014e+01 7.207154438391218428e+05
1.061009999999999920e+01 6.970177143210351933e+05
1.065090000000000003e+01 6.788979174960589735e+05
1.069170000000000087e+01 6.669131108611340169e+05
1.073249999999999993e+01 6.600523801503593568e+05
1.077330000000000076e+01 6.659162888630173402e+05
1.081409999999999982e+01 6.854394272716625128e+05
1.085490000000000066e+01 7.085472144214012660e+05
1.089569999999999972e+01 7.298114144599507563e+05
1.093650000000000055e+01 7.452492717064459575e+05
1.097729999999999961e+01 7.409144978915321408e+05
1.101820000000000022e+01 7.159631236283108592e+05
1.105899999999999928e+01 6.823802337800362147e+05
1.109980000000000011e+01 6.474720582586933160e+05
1.114059999999999917e+01 6.195252140900354134e+05
1.118140000000000001e+01 6.054982387751677306e+05
1.122220000000000084e+01 6.052824728165137349e+05
1.126299999999999990e+01 6.188092772924473975e+05
1.130380000000000074e+01 6.447773777709051501e+05
1.134459999999999980e+01 6.785567551727946848e+05
1.138540000000000063e+01 7.101119919483333360e+05
1.142619999999999969e+01 7.370489122470720904e+05
1.146700000000000053e+01 7.637795923040959751e+05
1.150779999999999959e+01 7.840325395373875508e+05
1.154870000000000019e+01 7.943345828334888211e+05
1.158949999999999925e+01 7.937134063367825001e+05
1.163030000000000008e+01 7.812541498899766011e+05
1.167109999999999914e+01 7.587127654458817560e+05
1.171189999999999998e+01 7.362622215377140092e+05
1.175270000000000081e+01 7.230285988595568342e+05
1.179349999999999987e+01 7.173174011843554908e+05
1.183430000000000071e+01 7.163214443926729728e+05
1.187509999999999977e+01 7.179440068576709600e+05
1.191590000000000060e+01 7.156287789951984305e+05
1.195669999999999966e+01 7.068749859312733170e+05
1.199750000000000050e+01 6.953431579525327543e+05
1.203839999999999932e+01 6.866319157508164644e+05
1.207920000000000016e+01 6.874324660289603053e+05
1.211999999999999922e+01 6.995746589289532276e+05
1.216080000000000005e+01 7.163249971437663771e+05
1.220159999999999911e+01 7.304981133739569923e+05
1.224239999999999995e+01 7.366276270190794021e+05
1.228320000000000078e+01 7.336054864079861436e+05
1.232399999999999984e+01 7.206660861345309531e+05
1.236480000000000068e+01 6.941833702873904258e+05
1.240559999999999974e+01 6.589882498731649248e+05
1.244640000000000057e+01 6.207469646903210087e+05
1.248719999999999963e+01 5.852817184737891657e+05
1.252800000000000047e+01 5.631829966150460532e+05
1.256889999999999930e+01 5.608479541458422318e+05
1.260970000000000013e+01 5.734711826274283230e+05
1.265049999999999919e+01 5.916460169738862896e+05
1.269130000000000003e+01 6.130309816921442980e+05
1.273210000000000086e+01 6.389216648043815512e+05
1.277289999999999992e+01 6.651987932721254183e+05
1.281370000000000076e+01 6.865915273577782791e+05
1.285449999999999982e+01 7.044633906968160300e+05
1.289530000000000065e+01 7.266778983247688739e+05
1.293609999999999971e+01 7.579641426996693481e+05
1.297690000000000055e+01 7.934319205113316420e+05
1.301769999999999960e+01 8.286280952667542733e+05
1.305860000000000021e+01 8.637202185152756283e+05
1.309939999999999927e+01 8.949769705573038664e+05
1.314020000000000010e+01 9.185750933015390765e+05
1.318099999999999916e+01 9.358170589003214845e+05
1.322180000000000000e+01 9.507515465651614359e+05
1.326260000000000083e+01 9.637242964260674780e+05
1.330339999999999989e+01 9.704798526113962289e+05
1.334420000000000073e+01 9.703655172645024722e+05
1.338499999999999979e+01 9.692436827105468838e+05
1.342580000000000062e+01 9.746929626745654969e+05
1.346659999999999968e+01 9.861741929547602776e+05
1.350740000000000052e+01 9.941136044656487647e+05
1.354819999999999958e+01 9.952927168463988928e+05
1.358910000000000018e+01 9.938170770760190208e+05
1.362989999999999924e+01 9.913355649718788918e+05
1.367070000000000007e+01 9.855301562420772389e+05
1.371149999999999913e+01 9.757918892215049127e+05
1.375229999999999997e+01 9.666503084196918644e+05
1.379310000000000080e+01 9.615039096782074776e+05
1.383389999999999986e+01 9.555693436902790563e+05
1.387470000000000070e+01 9.452078869373656344e+05
1.391549999999999976e+01 9.348311841660412028e+05
1.395630000000000059e+01 9.270993271729563130e+05
1.399709999999999965e+01 9.200354390846361639e+05
1.403790000000000049e+01 9.112368897845628671e+05
1.407879999999999932e+01 9.007532628867269959e+05
1.411960000000000015e+01 8.880022159115488175e+05
1.416039999999999921e+01 8.718465474239604082e+05
1.420120000000000005e+01 8.512581149673165055e+05
1.424200000000000088e+01 8.266068320657276781e+05
1.428279999999999994e+01 8.030096998131360160e+05
1.432360000000000078e+01 7.864306182107630884e+05
1.436439999999999984e+01 7.756102092242890503e+05
1.440520000000000067e+01 7.638256669789487496e+05
1.444599999999999973e+01 7.489111098164705327e+05
1.448680000000000057e+01 7.328999351366470801e+05
1.452759999999999962e+01 7.160637832362105837e+05
1.456840000000000046e+01 6.940882135495054536e+05
1.460929999999999929e+01 6.670673491942428518e+05
1.465010000000000012e+01 6.415388751362047624e+05
1.469089999999999918e+01 6.199764351421776228e+05
1.473170000000000002e+01 5.990302568012884585e+05
1.477250000000000085e+01 5.772595075651890365e+05
1.481329999999999991e+01 5.583466119753868552e+05
1.485410000000000075e+01 5.453261558464583941e+05
1.489489999999999981e+01 5.365830885486368788e+05
1.493570000000000064e+01 5.302357677241791971e+05
1.497649999999999970e+01 5.263793908953170758e+05
1.501730000000000054e+01 5.262153634355077520e+05
1.505809999999999960e+01 5.274210779453412397e+05
1.509900000000000020e+01 5.278010481418651761e+05
1.513979999999999926e+01 5.290291415963002946e+05
1.518060000000000009e+01 5.303059950017892988e+05
1.522139999999999915e+01 5.316544493103271816e+05
1.526219999999999999e+01 5.337676262906995835e+05
1.530300000000000082e+01 5.330347582023821305e+05
1.534379999999999988e+01 5.302100543891169364e+05
1.538460000000000072e+01 5.326379557163821300e+05
1.542539999999999978e+01 5.423342465024759294e+05
1.546620000000000061e+01 5.535127640844612615e+05
1.550699999999999967e+01 5.650167846554834396e+05
1.554780000000000051e+01 5.749799074420274701e+05
1.558859999999999957e+01 5.789385140768107958e+05
1.562950000000000017e+01 5.801696277772298781e+05
1.567029999999999923e+01 5.829310298315777909e+05
1.571110000000000007e+01 5.889994167191234883e+05
1.575189999999999912e+01 5.979170458481231472e+05
1.579269999999999996e+01 6.110598418232504046e+05
1.583350000000000080e+01 6.301937651368480874e+05
1.587429999999999986e+01 6.534187314092011657e+05
1.591510000000000069e+01 6.740798400100246072e+05
1.595589999999999975e+01 6.894164663771361811e+05
1.599670000000000059e+01 6.979039211890047882e+05
1.603750000000000142e+01 6.966004227119613206e+05
1.607829999999999870e+01 6.901012177753882715e+05
1.611919999999999931e+01 6.843167782468681689e+05
1.616000000000000014e+01 6.808977040820438415e+05
1.620080000000000098e+01 6.811926566828275099e+05
1.624159999999999826e+01 6.869114030311931856e+05
