# energy(eV) alpha
0.000000000000000000e+00 0.000000000000000000e+00
3.919999999999999873e-02 7.854559453325220542e-01
7.839999999999999747e-02 3.005049539826728733e+00
1.175999999999999962e-01 6.760672135088846346e+00
1.567999999999999949e-01 1.201742801540677341e+01
1.960000000000000075e-01 1.894465954325804091e+01
2.351999999999999924e-01 2.743832173222327953e+01
2.743999999999999773e-01 3.749656831014997493e+01
3.135999999999999899e-01 4.884386567013392266e+01
3.528000000000000025e-01 6.198959268695445957e+01
3.920000000000000151e-01 7.669132219793320360e+01
4.312000000000000277e-01 9.294579467321057109e+01
4.703999999999999848e-01 1.107496628688976017e+02
5.097000000000000419e-01 1.314511597156782159e+02
5.489000000000000545e-01 1.524428614829340631e+02
5.880999999999999561e-01 1.764984683616661982e+02
6.272999999999999687e-01 2.011979666540028404e+02
6.664999999999999813e-01 2.286420517813293998e+02
7.056999999999999940e-01 2.578046771066921110e+02
7.449000000000000066e-01 2.886763477915296789e+02
7.841000000000000192e-01 3.219252161639012115e+02
8.233000000000000318e-01 3.583593177737764108e+02
8.625000000000000444e-01 3.951844391762249415e+02
9.016999999999999460e-01 4.353056252357816334e+02
9.408999999999999586e-01 4.789070748326356011e+02
9.800999999999999712e-01 5.236446915919278808e+02
1.019300000000000095e+00 5.720327214573673018e+02
1.058499999999999996e+00 6.224414292169362852e+02
1.097699999999999898e+00 6.757896413633342263e+02
1.136900000000000022e+00 7.331414216850316734e+02
1.176099999999999923e+00 7.926501315095854352e+02
1.215300000000000047e+00 8.563761739254447320e+02
1.254499999999999948e+00 9.234183904348944907e+02
1.293700000000000072e+00 9.949484041850646463e+02
1.332899999999999974e+00 1.070008270371678691e+03
1.372100000000000097e+00 1.149819651769544635e+03
1.411299999999999999e+00 1.234543124691981802e+03
1.450499999999999901e+00 1.323103440293858284e+03
1.489700000000000024e+00 1.418077880051816237e+03
1.528999999999999915e+00 1.518507240506593689e+03
1.568200000000000038e+00 1.625661278490750647e+03
1.607399999999999940e+00 1.738517299908146470e+03
1.646600000000000064e+00 1.857174100492492698e+03
1.685799999999999965e+00 1.986010507956749507e+03
1.725000000000000089e+00 2.122505869016401903e+03
1.764199999999999990e+00 2.268338822398634875e+03
1.803399999999999892e+00 2.425260736173157511e+03
1.842600000000000016e+00 2.593617323019002015e+03
1.881799999999999917e+00 2.772154400467164578e+03
1.921000000000000041e+00 2.967428171759230736e+03
1.960199999999999942e+00 3.173548955646093418e+03
1.999400000000000066e+00 3.402104332030411115e+03
2.038600000000000190e+00 3.647205432180895968e+03
2.077799999999999869e+00 3.915926386195768828e+03
2.116999999999999993e+00 4.210582700654913424e+03
2.156200000000000117e+00 4.535329468188468127e+03
2.195399999999999796e+00 4.892615991011649385e+03
2.234599999999999920e+00 5.295660509952610482e+03
2.273800000000000043e+00 5.750981038473071749e+03
2.313000000000000167e+00 6.265172692680550426e+03
2.352199999999999847e+00 6.861657365109605962e+03
2.391399999999999970e+00 7.560780126012838991e+03
2.430600000000000094e+00 8.402369054220829639e+03
2.469800000000000217e+00 9.436906634763614420e+03
2.508999999999999897e+00 1.075878732969199700e+04
2.548299999999999788e+00 1.248980950860374833e+04
2.587499999999999911e+00 1.473246638226831965e+04
2.626700000000000035e+00 1.738087787914576620e+04
2.665900000000000158e+00 2.032223693265545080e+04
2.705099999999999838e+00 2.405792552429142961e+04
2.744299999999999962e+00 2.920594843067763213e+04
2.783500000000000085e+00 3.508856313385943940e+04
2.822700000000000209e+00 4.011106420007084671e+04
2.861899999999999888e+00 4.460355312076573318e+04
2.901100000000000012e+00 5.091424832215670176e+04
2.940300000000000136e+00 5.998712287882668170e+04
2.979499999999999815e+00 6.780306653270711831e+04
3.018699999999999939e+00 7.029904401784770016e+04
3.057900000000000063e+00 7.207410977540862223e+04
3.097100000000000186e+00 7.779065168246143730e+04
3.136299999999999866e+00 8.556554456384126388e+04
3.175499999999999989e+00 9.245349025419550890e+04
3.214700000000000113e+00 1.003891331870696886e+05
3.253899999999999793e+00 1.115801957191409747e+05
3.293099999999999916e+00 1.255674787160072738e+05
3.332300000000000040e+00 1.397968286592130898e+05
3.371500000000000163e+00 1.529923964780949173e+05
3.410699999999999843e+00 1.649305799605972425e+05
3.449899999999999967e+00 1.750962037767372967e+05
3.489100000000000090e+00 1.840677884725062759e+05
3.528399999999999981e+00 1.937703521233858773e+05
3.567600000000000104e+00 2.045823113295075309e+05
3.606799999999999784e+00 2.156901655153483152e+05
3.645999999999999908e+00 2.265058651864043204e+05
3.685200000000000031e+00 2.368189316600122547e+05
3.724400000000000155e+00 2.443495652440502017e+05
3.763599999999999834e+00 2.479191644562018628e+05
3.802799999999999958e+00 2.517994351838819566e+05
3.842000000000000082e+00 2.594454860951453447e+05
3.881200000000000205e+00 2.694274350849049515e+05
3.920399999999999885e+00 2.808126796294403612e+05
3.959600000000000009e+00 2.920113707879688009e+05
3.998800000000000132e+00 3.012284130578160984e+05
4.038000000000000256e+00 3.095197128707466181e+05
4.077200000000000379e+00 3.194547367498198291e+05
4.116399999999999615e+00 3.309198812367834616e+05
4.155599999999999739e+00 3.434150284962587757e+05
4.194799999999999862e+00 3.546879504581658985e+05
4.233999999999999986e+00 3.616372670288210502e+05
4.273200000000000109e+00 3.639700446386653348e+05
4.312400000000000233e+00 3.627066343017822946e+05
4.351600000000000357e+00 3.621028531781733036e+05
4.390799999999999592e+00 3.648486126236956334e+05
4.429999999999999716e+00 3.716415264270745683e+05
4.469199999999999839e+00 3.824192312756080646e+05
4.508399999999999963e+00 3.943750396989285946e+05
4.547699999999999854e+00 4.056017931106862379e+05
4.586899999999999977e+00 4.174096630045260536e+05
4.626100000000000101e+00 4.325271138419997296e+05
4.665300000000000225e+00 4.512311365255258279e+05
4.704500000000000348e+00 4.711209535732592340e+05
4.743699999999999584e+00 4.887530222003876115e+05
4.782899999999999707e+00 5.014515389112057746e+05
4.822099999999999831e+00 5.105570123870326206e+05
4.861299999999999955e+00 5.190589736175605794e+05
4.900500000000000078e+00 5.257666899745364208e+05
4.939700000000000202e+00 5.301850535273994319e+05
4.978900000000000325e+00 5.339147897192677483e+05
5.018099999999999561e+00 5.367260964487075107e+05
5.057299999999999685e+00 5.372456151269779075e+05
5.096499999999999808e+00 5.350419780302928993e+05
5.135699999999999932e+00 5.323645033291998552e+05
5.174900000000000055e+00 5.324860423421644373e+05
5.214100000000000179e+00 5.361722745145391673e+05
5.253300000000000303e+00 5.419826057266093558e+05
5.292500000000000426e+00 5.487010981044120854e+05
5.331699999999999662e+00 5.536151034208699130e+05
5.370899999999999785e+00 5.547558405447676778e+05
5.410099999999999909e+00 5.527128990565601271e+05
5.449300000000000033e+00 5.490211513576565776e+05
5.488500000000000156e+00 5.440810484632479493e+05
5.527700000000000280e+00 5.379513825816767057e+05
5.567000000000000171e+00 5.321668493874956621e+05
5.606200000000000294e+00 5.280708468415065436e+05
5.645400000000000418e+00 5.260508815985592082e+05
5.684599999999999653e+00 5.248856443386966130e+05
5.723799999999999777e+00 5.229299031897130772e+05
5.762999999999999901e+00 5.193204609695937252e+05
5.802200000000000024e+00 5.147955258616713108e+05
5.841400000000000148e+00 5.097952890262632864e+05
5.880600000000000271e+00 5.033749081793814548e+05
5.919800000000000395e+00 4.948361380059915828e+05
5.958999999999999631e+00 4.848585672706693877e+05
5.998199999999999754e+00 4.743014953093442018e+05
6.037399999999999878e+00 4.634046256358135724e+05
6.076600000000000001e+00 4.530896827519841609e+05
6.115800000000000125e+00 4.442003302500171703e+05
6.155000000000000249e+00 4.361923311907857424e+05
6.194200000000000372e+00 4.282098849207294406e+05
6.233399999999999608e+00 4.193099929567974759e+05
6.272599999999999731e+00 4.088126033410570817e+05
6.311799999999999855e+00 3.971993595895082108e+05
6.350999999999999979e+00 3.860851633740765392e+05
6.390200000000000102e+00 3.769140634241318330e+05
6.429400000000000226e+00 3.702240030667248648e+05
6.468600000000000350e+00 3.659505796219488257e+05
6.507799999999999585e+00 3.644270080765076564e+05
6.547100000000000364e+00 3.659398035758640035e+05
6.586299999999999599e+00 3.698660881100593833e+05
6.625499999999999723e+00 3.752265454927036772e+05
6.664699999999999847e+00 3.814884853403826710e+05
6.703899999999999970e+00 3.882362316015806864e+05
6.743100000000000094e+00 3.945038724784296355e+05
6.782300000000000217e+00 3.986573149170438410e+05
6.821500000000000341e+00 3.994100725604416803e+05
6.860699999999999577e+00 3.976266626966517651e+05
6.899899999999999700e+00 3.955867522279642872e+05
6.939099999999999824e+00 3.951641963300645002e+05
6.978299999999999947e+00 3.960424982266358566e+05
7.017500000000000071e+00 3.962700348185115727e+05
7.056700000000000195e+00 3.942943463660880225e+05
7.095900000000000318e+00 3.890842686827075668e+05
7.135100000000000442e+00 3.810878475474872394e+05
7.174299999999999677e+00 3.722358564318869612e+05
7.213499999999999801e+00 3.649386804898220580e+05
7.252699999999999925e+00 3.608869310571566457e+05
7.291900000000000048e+00 3.601938446427749586e+05
7.331100000000000172e+00 3.616813922139407950e+05
7.370300000000000296e+00 3.646905199295784114e+05
7.409500000000000419e+00 3.685775455162617145e+05
7.448699999999999655e+00 3.724746554792288225e+05
7.487899999999999778e+00 3.754365620032425504e+05
7.527099999999999902e+00 3.774310313317811233e+05
7.566399999999999793e+00 3.784501566759874695e+05
7.605599999999999916e+00 3.793395148168996093e+05
7.644800000000000040e+00 3.813355840624535340e+05
7.684000000000000163e+00 3.843396101659570122e+05
7.723200000000000287e+00 3.881202249421828892e+05
7.762400000000000411e+00 3.934424431661923300e+05
7.801599999999999646e+00 4.009114186604941497e+05
7.840799999999999770e+00 4.097946990065784194e+05
7.879999999999999893e+00 4.188944851904228562e+05
7.919200000000000017e+00 4.276351826043722685e+05
7.958400000000000141e+00 4.357793375735053560e+05
7.997600000000000264e+00 4.434759721862699953e+05
8.036799999999999500e+00 4.507816702865908155e+05
8.076000000000000512e+00 4.580707998238815926e+05
8.115199999999999747e+00 4.660360977153780987e+05
8.154400000000000759e+00 4.748716769036470214e+05
8.193599999999999994e+00 4.850066218644329347e+05
8.232799999999999230e+00 4.967254758928632946e+05
8.272000000000000242e+00 5.094855635117567726e+05
8.311199999999999477e+00 5.225756125274820370e+05
8.350400000000000489e+00 5.354876005114890868e+05
8.389599999999999724e+00 5.482401207038904540e+05
8.428800000000000736e+00 5.611470844868292334e+05
8.467999999999999972e+00 5.739214244510792196e+05
8.507199999999999207e+00 5.857391591187000740e+05
8.546499999999999986e+00 5.959761741735064425e+05
8.585699999999999221e+00 6.047049710180078400e+05
8.624900000000000233e+00 6.124504574467977509e+05
8.664099999999999469e+00 6.198055873768548481e+05
8.703300000000000480e+00 6.270660218159616925e+05
8.742499999999999716e+00 6.337756920256522717e+05
8.781700000000000728e+00 6.398502100588055328e+05
8.820899999999999963e+00 6.452426200323502999e+05
8.860099999999999199e+00 6.498094578230443876e+05
8.899300000000000210e+00 6.538624900432168506e+05
8.938499999999999446e+00 6.580613669150888454e+05
8.977700000000000458e+00 6.627084322130504297e+05
9.016899999999999693e+00 6.683621105283320649e+05
9.056100000000000705e+00 6.754274280644862447e+05
9.095299999999999940e+00 6.831831181259263540e+05
9.134499999999999176e+00 6.906185949881278211e+05
9.173700000000000188e+00 6.977645034014163539e+05
9.212899999999999423e+00 7.047811500172327505e+05
9.252100000000000435e+00 7.110929607943070587e+05
9.291299999999999670e+00 7.157759527770447312e+05
9.330500000000000682e+00 7.186179291399959475e+05
9.369699999999999918e+00 7.207378578146033688e+05
9.408899999999999153e+00 7.229162229041990358e+05
9.448100000000000165e+00 7.261450052190109855e+05
9.487299999999999400e+00 7.314100374824352330e+05
9.526500000000000412e+00 7.383450947319355328e+05
9.565799999999999415e+00 7.462957869448001729e+05
9.605000000000000426e+00 7.547252975221266970e+05
9.644199999999999662e+00 7.631145119540618034e+05
9.683400000000000674e+00 7.714622680751327425e+05
9.722599999999999909e+00 7.801323261006594403e+05
9.761799999999999145e+00 7.892973130718830507e+05
9.801000000000000156e+00 7.982219349290934624e+05
9.840199999999999392e+00 8.058172768820833880e+05
9.879400000000000404e+00 8.120003516969758784e+05
9.918599999999999639e+00 8.175151882543468382e+05
9.957800000000000651e+00 8.222525693750370992e+05
9.996999999999999886e+00 8.263250548828305909e+05
1.003619999999999912e+01 8.304623720906219678e+05
1.007540000000000013e+01 8.345926149249618175e+05
1.011459999999999937e+01 8.378440296827983111e+05
1.015380000000000038e+01 8.398878703571747756e+05
1.019299999999999962e+01 8.418778009142481023e+05
1.023220000000000063e+01 8.452006350781091023e+05
1.027139999999999986e+01 8.497382583363860613e+05
1.031060000000000088e+01 8.550766302229542052e+05
1.034980000000000011e+01 8.615848399802832864e+05
1.038899999999999935e+01 8.698294863235050580e+05
1.042820000000000036e+01 8.804865072709011147e+05
1.046739999999999959e+01 8.934340242373362416e+05
1.050660000000000061e+01 9.077488851318020606e+05
1.054579999999999984e+01 9.220920006508504739e+05
1.058510000000000062e+01 9.356060228509282460e+05
1.062429999999999986e+01 9.480766718119825236e+05
1.066350000000000087e+01 9.597077168297559256e+05
1.070270000000000010e+01 9.715734325827623252e+05
1.074189999999999934e+01 9.837598151143959258e+05
1.078110000000000035e+01 9.942526258455294883e+05
1.082029999999999959e+01 1.002097753719738452e+06
1.085950000000000060e+01 1.008293863780432148e+06
1.089869999999999983e+01 1.012733214538291446e+06
1.093790000000000084e+01 1.015707963864802034e+06
1.097710000000000008e+01 1.017055534298679093e+06
1.101629999999999932e+01 1.016063294532118598e+06
1.105550000000000033e+01 1.014139696007388178e+06
1.109469999999999956e+01 1.013177046958739753e+06
1.113390000000000057e+01 1.012632552022016724e+06
1.117309999999999981e+01 1.012156378957780194e+06
1.121230000000000082e+01 1.012626768015814247e+06
1.125150000000000006e+01 1.014275367227511248e+06
1.129069999999999929e+01 1.016643177069145837e+06
1.132990000000000030e+01 1.019316686173123308e+06
1.136909999999999954e+01 1.023039217321624630e+06
1.140830000000000055e+01 1.028233425396661507e+06
1.144749999999999979e+01 1.033373799198293942e+06
1.148670000000000080e+01 1.037355183239336242e+06
1.152590000000000003e+01 1.039899962338528479e+06
1.156520000000000081e+01 1.042169917106572771e+06
1.160440000000000005e+01 1.044595612866339157e+06
1.164359999999999928e+01 1.045869741963056615e+06
1.168280000000000030e+01 1.044317148951575276e+06
1.172199999999999953e+01 1.040371667369557545e+06
1.176120000000000054e+01 1.036256841630523326e+06
1.180039999999999978e+01 1.033066489507152000e+06
1.183960000000000079e+01 1.031909526617462863e+06
1.187880000000000003e+01 1.033927140151768224e+06
1.191799999999999926e+01 1.038574720045728027e+06
1.195720000000000027e+01 1.044510844397081528e+06
1.199639999999999951e+01 1.050881315319942776e+06
1.203560000000000052e+01 1.056777214245432755e+06
1.207479999999999976e+01 1.062212975067554042e+06
1.211400000000000077e+01 1.067752288849019213e+06
1.215320000000000000e+01 1.073337219862983562e+06
1.219239999999999924e+01 1.078673516458798898e+06
1.223160000000000025e+01 1.083508215756207239e+06
1.227079999999999949e+01 1.088753080833736109e+06
1.231000000000000050e+01 1.094304820426165359e+06
1.234919999999999973e+01 1.098554053336929530e+06
1.238840000000000074e+01 1.101094756356443744e+06
1.242759999999999998e+01 1.103128071488365065e+06
1.246679999999999922e+01 1.104622316331655951e+06
1.250600000000000023e+01 1.104233891310865292e+06
1.254519999999999946e+01 1.101484041598003125e+06
1.258450000000000024e+01 1.097031528328973101e+06
1.262369999999999948e+01 1.091989297951343935e+06
1.266290000000000049e+01 1.087598270323075354e+06
1.270209999999999972e+01 1.083525790520869428e+06
1.274130000000000074e+01 1.079210359004241880e+06
1.278049999999999997e+01 1.075751680613763863e+06
1.281969999999999921e+01 1.074105787164651323e+06
1.285890000000000022e+01 1.073733092232751893e+06
1.289809999999999945e+01 1.073117954482264817e+06
1.293730000000000047e+01 1.072155159318958875e+06
1.297649999999999970e+01 1.072309447084663901e+06
1.301570000000000071e+01 1.073340213926678523e+06
1.305489999999999995e+01 1.074336231258418877e+06
1.309409999999999918e+01 1.075649038134932751e+06
1.313330000000000020e+01 1.076548025542214047e+06
1.317249999999999943e+01 1.076287592399711953e+06
1.321170000000000044e+01 1.074712954045434715e+06
1.325089999999999968e+01 1.071759416040817276e+06
1.329010000000000069e+01 1.068922177038117545e+06
1.332929999999999993e+01 1.067464662603380391e+06
1.336849999999999916e+01 1.067262747525663581e+06
1.340770000000000017e+01 1.067712358472278342e+06
1.344689999999999941e+01 1.068028167071922449e+06
1.348610000000000042e+01 1.067614395892849658e+06
1.352529999999999966e+01 1.066103404793671332e+06
1.356450000000000067e+01 1.062613226143604377e+06
1.360379999999999967e+01 1.057496935486488510e+06
1.364300000000000068e+01 1.052737166598033393e+06
1.368219999999999992e+01 1.050012191322968807e+06
1.372139999999999915e+01 1.048573224753241055e+06
1.376060000000000016e+01 1.046630129407251021e+06
1.379979999999999940e+01 1.044365448049515020e+06
1.383900000000000041e+01 1.043772703898867709e+06
1.387819999999999965e+01 1.045059977242999710e+06
1.391740000000000066e+01 1.046750519160609809e+06
1.395659999999999989e+01 1.047223016156548052e+06
1.399579999999999913e+01 1.045444413268158562e+06
1.403500000000000014e+01 1.041700643502167193e+06
1.407419999999999938e+01 1.037564087186444784e+06
1.411340000000000039e+01 1.033482271265584161e+06
1.415259999999999962e+01 1.028405046566301491e+06
1.419180000000000064e+01 1.022235297993875691e+06
1.423099999999999987e+01 1.016196019190464285e+06
1.427020000000000088e+01 1.010748261108038831e+06
1.430940000000000012e+01 1.007326040174255497e+06
1.434859999999999935e+01 1.007552697234478430e+06
1.438780000000000037e+01 1.009556253934045788e+06
1.442699999999999960e+01 1.009223401248722221e+06
1.446620000000000061e+01 1.003835914904203149e+06
1.450539999999999985e+01 9.934868266754964134e+05
1.454460000000000086e+01 9.799509995505906409e+05
1.458389999999999986e+01 9.652384982275679940e+05
1.462310000000000088e+01 9.506869086323952070e+05
1.466230000000000011e+01 9.377510462849793257e+05
1.470149999999999935e+01 9.275893422510743840e+05
1.474070000000000036e+01 9.204514988908043597e+05
1.477989999999999959e+01 9.162087697881226195e+05
1.481910000000000061e+01 9.136930544419464422e+05
1.485829999999999984e+01 9.123389155725070741e+05
1.489750000000000085e+01 9.116343021926488727e+05
1.493670000000000009e+01 9.109988690022627125e+05
1.497589999999999932e+01 9.101469771383294137e+05
1.501510000000000034e+01 9.092555338143056724e+05
1.505429999999999957e+01 9.075599783895163564e+05
1.509350000000000058e+01 9.041049530719236936e+05
1.513269999999999982e+01 8.989021727737286128e+05
1.517190000000000083e+01 8.931781102277141763e+05
1.521110000000000007e+01 8.881755778872736264e+05
1.525029999999999930e+01 8.839040096001569182e+05
1.528950000000000031e+01 8.804218259112309897e+05
1.532869999999999955e+01 8.781135094254938886e+05
1.536790000000000056e+01 8.771256697239121422e+05
1.540709999999999980e+01 8.769424260214001406e+05
1.544630000000000081e+01 8.763225715834952425e+05
1.548550000000000004e+01 8.748476001888549654e+05
1.552469999999999928e+01 8.735298248884435743e+05
1.556390000000000029e+01 8.722581786254660692e+05
1.560319999999999929e+01 8.699574960933371913e+05
