# energy(eV) alpha
0.000000000000000000e+00 0.000000000000000000e+00
3.760000000000000148e-02 1.338036745493411450e+00
7.520000000000000295e-02 5.227197319014965871e+00
1.127999999999999975e-01 1.185268726457158373e+01
1.504000000000000059e-01 2.114966536260298113e+01
1.880000000000000004e-01 3.326991116372016677e+01
2.257000000000000117e-01 4.795037816641215045e+01
2.632999999999999785e-01 6.570597572835518463e+01
3.009000000000000008e-01 8.623576696827244348e+01
3.385000000000000231e-01 1.098120384334307147e+02
3.760999999999999899e-01 1.362056937251552995e+02
4.137000000000000122e-01 1.660899307016933051e+02
4.512999999999999790e-01 1.992644221582137050e+02
4.889000000000000012e-01 2.358056579828746351e+02
5.264999999999999680e-01 2.766585803947951376e+02
5.641000000000000458e-01 3.202239794659110430e+02
6.017000000000000126e-01 3.688601460945731105e+02
6.393999999999999684e-01 4.214001244288675139e+02
6.770000000000000462e-01 4.783370131667971350e+02
7.146000000000000130e-01 5.410544910057960806e+02
7.521999999999999797e-01 6.080377820411125640e+02
7.897999999999999465e-01 6.812727736035944872e+02
8.274000000000000243e-01 7.603939908654280089e+02
8.649999999999999911e-01 8.470393438196979332e+02
9.025999999999999579e-01 9.401221680365939619e+02
9.402000000000000357e-01 1.042134892204161133e+03
9.778000000000000025e-01 1.152741404720736909e+03
1.015500000000000069e+00 1.273231105187541061e+03
1.053099999999999925e+00 1.405496075371090456e+03
1.090700000000000003e+00 1.550231047543456270e+03
1.128300000000000081e+00 1.708875659938711124e+03
1.165899999999999936e+00 1.883901377375697166e+03
1.203500000000000014e+00 2.077020017786105200e+03
1.241100000000000092e+00 2.294911300291480529e+03
1.278699999999999948e+00 2.536753318636417589e+03
1.316300000000000026e+00 2.810786641175701334e+03
1.353900000000000103e+00 3.122691250982074052e+03
1.391499999999999959e+00 3.482788213458590235e+03
1.429200000000000026e+00 3.901188100190790919e+03
1.466800000000000104e+00 4.399003130940878691e+03
1.504399999999999959e+00 5.000615003502661239e+03
1.542000000000000037e+00 5.745483960408096209e+03
1.579599999999999893e+00 6.700451786475500739e+03
1.617199999999999971e+00 7.961740391355995598e+03
1.654800000000000049e+00 9.692501829776787417e+03
1.692399999999999904e+00 1.209650303533652550e+04
1.729999999999999982e+00 1.521531014279206647e+04
1.767600000000000060e+00 1.848273001157042381e+04
1.805199999999999916e+00 2.134987052432947530e+04
1.842899999999999983e+00 2.448727727004154440e+04
1.880500000000000060e+00 2.849467542124868487e+04
1.918099999999999916e+00 3.366064565994549775e+04
1.955699999999999994e+00 4.023512800158905156e+04
1.993300000000000072e+00 4.651267974196587602e+04
2.030899999999999928e+00 4.988209245772325085e+04
2.068499999999999783e+00 5.125370990918520693e+04
2.106100000000000083e+00 5.234479220701677696e+04
2.143699999999999939e+00 5.526819217369899707e+04
2.181299999999999795e+00 6.093700544682506734e+04
2.218900000000000095e+00 6.663530023876199266e+04
2.256600000000000161e+00 6.936096088974751183e+04
2.294200000000000017e+00 7.144712696997720923e+04
2.331799999999999873e+00 7.657576293045055354e+04
2.369400000000000173e+00 8.464879793834015436e+04
2.407000000000000028e+00 9.242818319514243922e+04
2.444599999999999884e+00 9.636410877216281369e+04
2.482200000000000184e+00 9.826030118400338688e+04
2.519800000000000040e+00 1.019850407055090182e+05
2.557399999999999896e+00 1.088072010004741023e+05
2.595000000000000195e+00 1.181115026597631950e+05
2.632600000000000051e+00 1.298404550124443485e+05
2.670300000000000118e+00 1.418116772297875432e+05
2.707899999999999974e+00 1.512043229873698147e+05
2.745499999999999829e+00 1.599559410826900566e+05
2.783100000000000129e+00 1.702746491749302659e+05
2.820699999999999985e+00 1.817649008633557532e+05
2.858299999999999841e+00 1.927356926389012660e+05
2.895900000000000141e+00 2.024410773140967940e+05
2.933499999999999996e+00 2.094384486054507142e+05
2.971099999999999852e+00 2.095664062732685707e+05
3.008700000000000152e+00 2.031041031584354641e+05
3.046400000000000219e+00 1.957402380863453436e+05
3.084000000000000075e+00 1.919639888879108767e+05
3.121599999999999930e+00 1.941055943388404557e+05
3.159199999999999786e+00 2.019609390053471143e+05
3.196800000000000086e+00 2.142386641177955898e+05
3.234399999999999942e+00 2.323718911170869251e+05
3.271999999999999797e+00 2.550427153501948633e+05
3.309600000000000097e+00 2.751689505609047483e+05
3.347199999999999953e+00 2.867815963266699109e+05
3.384799999999999809e+00 2.878106377562805428e+05
3.422400000000000109e+00 2.808151279740473256e+05
3.460100000000000176e+00 2.690578397714613820e+05
3.497700000000000031e+00 2.579778996678636177e+05
3.535299999999999887e+00 2.554531424585286295e+05
3.572900000000000187e+00 2.636881908077982953e+05
3.610500000000000043e+00 2.779732091366000823e+05
3.648099999999999898e+00 2.937530661297491170e+05
3.685700000000000198e+00 3.090533252647732152e+05
3.723300000000000054e+00 3.191114358786517987e+05
3.760899999999999910e+00 3.195899200093439431e+05
3.798500000000000210e+00 3.140226010689740651e+05
3.836100000000000065e+00 3.049841683058911003e+05
3.873800000000000132e+00 2.916167435666013043e+05
3.911399999999999988e+00 2.769337222348429495e+05
3.948999999999999844e+00 2.670595768958775443e+05
3.986600000000000144e+00 2.656628548949380638e+05
4.024200000000000443e+00 2.700368764411566663e+05
4.061799999999999855e+00 2.746627379040810629e+05
4.099400000000000155e+00 2.792555268888185965e+05
4.136999999999999567e+00 2.838075110937603749e+05
4.174599999999999866e+00 2.857920246649382752e+05
4.212200000000000166e+00 2.856817362826935714e+05
4.249799999999999578e+00 2.867451664661195246e+05
4.287499999999999645e+00 2.905470127938891528e+05
4.325099999999999945e+00 2.946007480564429425e+05
4.362700000000000244e+00 2.951935968025506008e+05
4.400299999999999656e+00 2.903859023129140842e+05
4.437899999999999956e+00 2.828752675827935454e+05
4.475500000000000256e+00 2.742791913243686431e+05
4.513099999999999667e+00 2.650547471854192554e+05
4.550699999999999967e+00 2.573463903807034367e+05
4.588300000000000267e+00 2.525467454932665860e+05
4.625899999999999679e+00 2.519670564602373925e+05
4.663499999999999979e+00 2.542423929853999580e+05
4.701200000000000045e+00 2.563491906375390827e+05
4.738800000000000345e+00 2.588952566040449310e+05
4.776399999999999757e+00 2.638550949881548295e+05
4.814000000000000057e+00 2.710570450873342925e+05
4.851600000000000357e+00 2.780103910633687046e+05
4.889199999999999768e+00 2.834937411482054740e+05
4.926800000000000068e+00 2.893243247650252306e+05
4.964400000000000368e+00 2.960202232535217772e+05
5.001999999999999780e+00 3.016486012956983759e+05
5.039600000000000080e+00 3.061975999101094203e+05
5.077300000000000146e+00 3.109233257882588077e+05
5.114899999999999558e+00 3.154910188845940283e+05
5.152499999999999858e+00 3.195941671219476266e+05
5.190100000000000158e+00 3.246971700988130760e+05
5.227699999999999569e+00 3.324617674065908068e+05
5.265299999999999869e+00 3.429256212122229044e+05
5.302900000000000169e+00 3.547758569111303077e+05
5.340499999999999581e+00 3.667429331013018382e+05
5.378099999999999881e+00 3.788545560006979504e+05
5.415700000000000180e+00 3.904528349164688843e+05
5.453299999999999592e+00 3.996653697167432983e+05
5.490999999999999659e+00 4.072241484070068109e+05
5.528599999999999959e+00 4.146252216438197647e+05
5.566200000000000259e+00 4.215831050421025720e+05
5.603799999999999670e+00 4.281957983038198436e+05
5.641399999999999970e+00 4.351969904730675044e+05
5.679000000000000270e+00 4.422517566410204745e+05
5.716599999999999682e+00 4.497219452738130931e+05
5.754199999999999982e+00 4.579269248415328912e+05
5.791800000000000281e+00 4.667409399114982807e+05
5.829399999999999693e+00 4.762065418468211428e+05
5.866999999999999993e+00 4.846947198999615503e+05
5.904700000000000060e+00 4.899539006837059278e+05
5.942300000000000360e+00 4.931741561398417689e+05
5.979899999999999771e+00 4.963718482388118282e+05
6.017500000000000071e+00 4.980348767162871663e+05
6.055100000000000371e+00 4.955771397476378479e+05
6.092699999999999783e+00 4.894453310016536270e+05
6.130300000000000082e+00 4.830165717755107326e+05
6.167900000000000382e+00 4.773475315635596053e+05
6.205499999999999794e+00 4.703085122557259747e+05
6.243100000000000094e+00 4.600102646179728326e+05
6.280700000000000394e+00 4.466100903324352694e+05
6.318399999999999572e+00 4.323376684100071434e+05
6.355999999999999872e+00 4.204911773236416047e+05
6.393600000000000172e+00 4.134271909308966133e+05
6.431199999999999584e+00 4.103074728189209127e+05
6.468799999999999883e+00 4.078122577698567184e+05
6.506400000000000183e+00 4.038907837418272975e+05
6.543999999999999595e+00 3.995685432626004331e+05
6.581599999999999895e+00 3.963899765264888993e+05
6.619200000000000195e+00 3.948727904771656613e+05
6.656799999999999606e+00 3.943793999756450066e+05
6.694399999999999906e+00 3.939447419998413534e+05
6.732099999999999973e+00 3.939348115876678494e+05
6.769700000000000273e+00 3.949755098812120268e+05
6.807299999999999685e+00 3.970933303749461775e+05
6.844899999999999984e+00 4.003473814029345522e+05
6.882500000000000284e+00 4.043316524393724976e+05
6.920099999999999696e+00 4.081340619535770384e+05
6.957699999999999996e+00 4.116776691547548980e+05
6.995300000000000296e+00 4.161997802130127675e+05
7.032899999999999707e+00 4.224762456252899137e+05
7.070500000000000007e+00 4.290362356987881358e+05
7.108200000000000074e+00 4.343066497028499143e+05
7.145800000000000374e+00 4.380494042120397207e+05
7.183399999999999785e+00 4.403424034489509650e+05
7.221000000000000085e+00 4.416071217613753979e+05
7.258600000000000385e+00 4.425195357267571380e+05
7.296199999999999797e+00 4.429448705274232198e+05
7.333800000000000097e+00 4.424314598763172398e+05
7.371400000000000396e+00 4.410011375222165952e+05
7.408999999999999808e+00 4.383428201447603060e+05
7.446600000000000108e+00 4.347232124978625798e+05
7.484200000000000408e+00 4.314344668871915783e+05
7.521899999999999586e+00 4.294031430582931498e+05
7.559499999999999886e+00 4.288011804525265470e+05
7.597100000000000186e+00 4.298045327205437352e+05
7.634699999999999598e+00 4.331222013371334760e+05
7.672299999999999898e+00 4.393470142163180280e+05
7.709900000000000198e+00 4.482284305307621253e+05
7.747499999999999609e+00 4.585682002439319622e+05
7.785099999999999909e+00 4.692607235646920744e+05
7.822700000000000209e+00 4.805642777146474691e+05
7.860299999999999621e+00 4.933606522622004850e+05
7.897899999999999920e+00 5.077026291478778585e+05
7.935599999999999987e+00 5.224806114760330529e+05
7.973200000000000287e+00 5.364446762994417222e+05
8.010799999999999699e+00 5.494286470301017398e+05
8.048400000000000887e+00 5.617868469423917122e+05
8.086000000000000298e+00 5.740616990436239867e+05
8.123599999999999710e+00 5.859173616193615599e+05
8.161199999999999122e+00 5.969263413614075398e+05
8.198800000000000310e+00 6.072847592930609826e+05
8.236399999999999721e+00 6.166397244538532104e+05
8.273999999999999133e+00 6.240343101661198307e+05
8.311600000000000321e+00 6.296163769657285884e+05
8.349299999999999500e+00 6.346189906709037023e+05
8.386900000000000688e+00 6.398131486029684311e+05
8.424500000000000099e+00 6.451818755552732619e+05
8.462099999999999511e+00 6.500814956292547286e+05
8.499700000000000699e+00 6.542956297863489017e+05
8.537300000000000111e+00 6.582304770831638016e+05
8.574899999999999523e+00 6.622182960822546156e+05
8.612500000000000711e+00 6.663932649624290643e+05
8.650100000000000122e+00 6.701819718838272383e+05
8.687699999999999534e+00 6.731599048052486032e+05
8.725300000000000722e+00 6.758961427005997393e+05
8.762999999999999901e+00 6.788335406558708055e+05
8.800599999999999312e+00 6.819970836017391412e+05
8.838200000000000500e+00 6.849620532182905590e+05
8.875799999999999912e+00 6.870846088344445452e+05
8.913399999999999324e+00 6.881617921442153165e+05
8.951000000000000512e+00 6.891776731340104016e+05
8.988599999999999923e+00 6.911315758583935676e+05
9.026199999999999335e+00 6.935373580342356581e+05
9.063800000000000523e+00 6.954301607429094147e+05
9.101399999999999935e+00 6.966777687508275267e+05
9.139099999999999113e+00 6.978162691539555090e+05
9.176700000000000301e+00 6.992897992177766282e+05
9.214299999999999713e+00 7.019779012866819976e+05
9.251899999999999125e+00 7.062539159530443139e+05
9.289500000000000313e+00 7.120069602835999103e+05
9.327099999999999724e+00 7.196547254703938961e+05
9.364699999999999136e+00 7.297698893660226604e+05
9.402300000000000324e+00 7.416551678988005733e+05
9.439899999999999736e+00 7.541604239103955915e+05
9.477499999999999147e+00 7.668096266131201992e+05
9.515100000000000335e+00 7.794449325957342517e+05
9.552799999999999514e+00 7.911793037336127600e+05
9.590400000000000702e+00 8.009199279874945059e+05
9.628000000000000114e+00 8.080197591585733462e+05
9.665599999999999525e+00 8.132623580929122400e+05
9.703200000000000713e+00 8.181365452109766193e+05
9.740800000000000125e+00 8.229826686592268525e+05
9.778399999999999537e+00 8.272565895939621842e+05
9.816000000000000725e+00 8.312341356531144120e+05
9.853600000000000136e+00 8.358312561253343010e+05
9.891199999999999548e+00 8.410450001821367769e+05
9.928800000000000736e+00 8.455740343065347988e+05
9.966499999999999915e+00 8.484432636290917872e+05
1.000409999999999933e+01 8.499906636553735007e+05
1.004170000000000051e+01 8.511259250689224573e+05
1.007929999999999993e+01 8.522565096259781858e+05
1.011689999999999934e+01 8.532217493748069974e+05
1.015450000000000053e+01 8.538590631243104581e+05
1.019209999999999994e+01 8.549069172532551456e+05
1.022969999999999935e+01 8.571332148808641359e+05
1.026730000000000054e+01 8.607062283093186561e+05
1.030489999999999995e+01 8.658535635611889884e+05
1.034249999999999936e+01 8.724387753838301869e+05
1.038020000000000032e+01 8.802450075238161953e+05
1.041779999999999973e+01 8.891033838558084099e+05
1.045539999999999914e+01 8.979406034533401253e+05
1.049300000000000033e+01 9.048581547347210580e+05
1.053059999999999974e+01 9.092896496170019964e+05
1.056819999999999915e+01 9.128448639733608579e+05
1.060580000000000034e+01 9.168332703039323678e+05
1.064339999999999975e+01 9.208633713302450487e+05
1.068099999999999916e+01 9.244595829993925290e+05
1.071860000000000035e+01 9.278513656940126093e+05
1.075619999999999976e+01 9.313838778941954952e+05
1.079390000000000072e+01 9.346326206254782155e+05
1.083150000000000013e+01 9.373997560538164107e+05
1.086909999999999954e+01 9.404787369256223319e+05
1.090670000000000073e+01 9.442199278218353866e+05
1.094430000000000014e+01 9.486296704111077124e+05
1.098189999999999955e+01 9.536754235968330177e+05
1.101950000000000074e+01 9.594019859887851635e+05
1.105710000000000015e+01 9.660452480123961577e+05
1.109469999999999956e+01 9.733411570056163473e+05
1.113230000000000075e+01 9.808198120541202370e+05
1.116999999999999993e+01 9.879574796758397715e+05
1.120759999999999934e+01 9.938763592109596357e+05
1.124520000000000053e+01 9.980769865760770626e+05
1.128279999999999994e+01 1.000561568666600040e+06
1.132039999999999935e+01 1.001418922148790443e+06
1.135800000000000054e+01 1.000487174361594836e+06
1.139559999999999995e+01 9.974808798809550935e+05
1.143319999999999936e+01 9.928732140826534014e+05
1.147080000000000055e+01 9.876697399966121884e+05
1.150839999999999996e+01 9.828642108223881805e+05
1.154599999999999937e+01 9.783117419536559610e+05
1.158370000000000033e+01 9.730453285591709428e+05
1.162129999999999974e+01 9.670181333839776926e+05
1.165889999999999915e+01 9.612025718176383525e+05
1.169650000000000034e+01 9.570428753848311026e+05
1.173409999999999975e+01 9.549626542209213367e+05
1.177169999999999916e+01 9.539298550897984533e+05
1.180930000000000035e+01 9.524636583478947869e+05
1.184689999999999976e+01 9.497114389087578747e+05
1.188449999999999918e+01 9.462098058003700571e+05
1.192210000000000036e+01 9.429836662804022199e+05
1.195969999999999978e+01 9.405540968511395622e+05
1.199740000000000073e+01 9.387575159449179191e+05
1.203500000000000014e+01 9.371725079957513371e+05
1.207259999999999955e+01 9.360931261997189140e+05
1.211020000000000074e+01 9.356857226217808202e+05
1.214780000000000015e+01 9.356334613472546916e+05
1.218539999999999957e+01 9.357662217546540778e+05
1.222300000000000075e+01 9.366136871302890358e+05
1.226060000000000016e+01 9.388254034339817008e+05
1.229819999999999958e+01 9.415244467526348308e+05
1.233580000000000076e+01 9.435225652314021718e+05
1.237340000000000018e+01 9.442343573367581703e+05
1.241109999999999935e+01 9.438701394637939520e+05
1.244870000000000054e+01 9.428926396918488899e+05
1.248629999999999995e+01 9.418744641517008422e+05
1.252389999999999937e+01 9.407530348270871909e+05
1.256150000000000055e+01 9.395238298199418932e+05
1.259909999999999997e+01 9.389816580510442145e+05
1.263669999999999938e+01 9.393931276504489360e+05
1.267430000000000057e+01 9.402783027706914581e+05
1.271189999999999998e+01 9.414787054455698235e+05
1.274949999999999939e+01 9.436633211249605520e+05
1.278720000000000034e+01 9.474359539003545651e+05
1.282479999999999976e+01 9.522578398152882000e+05
1.286239999999999917e+01 9.578060873848890187e+05
1.290000000000000036e+01 9.645780234725485789e+05
1.293759999999999977e+01 9.711636303503334057e+05
1.297519999999999918e+01 9.752766725831698859e+05
1.301280000000000037e+01 9.765518845547810197e+05
1.305039999999999978e+01 9.765157975954144495e+05
1.308799999999999919e+01 9.782570759069391061e+05
1.312560000000000038e+01 9.841152261641853256e+05
1.316319999999999979e+01 9.931540219365223311e+05
1.320090000000000074e+01 1.003165629460853990e+06
1.323850000000000016e+01 1.013621994857718935e+06
1.327609999999999957e+01 1.024847349606287200e+06
1.331370000000000076e+01 1.037093207318734727e+06
1.335130000000000017e+01 1.049659437508569798e+06
1.338889999999999958e+01 1.061175492775339168e+06
1.342650000000000077e+01 1.071480024460016750e+06
1.346410000000000018e+01 1.081912605842015939e+06
1.350169999999999959e+01 1.092956211361313704e+06
1.353930000000000078e+01 1.104209246062943945e+06
1.357690000000000019e+01 1.115539563835035544e+06
1.361459999999999937e+01 1.128071168093664339e+06
1.365220000000000056e+01 1.143350703010299709e+06
1.368979999999999997e+01 1.161244356335187564e+06
1.372739999999999938e+01 1.179881689811753109e+06
1.376500000000000057e+01 1.196663050695072161e+06
1.380259999999999998e+01 1.208745613962693140e+06
1.384019999999999939e+01 1.214784149826893816e+06
1.387780000000000058e+01 1.215856448795716045e+06
1.391539999999999999e+01 1.214761173738508951e+06
1.395299999999999940e+01 1.214114130760156550e+06
1.399060000000000059e+01 1.214173558576553594e+06
1.402829999999999977e+01 1.214378318187972764e+06
1.406589999999999918e+01 1.213451131858394248e+06
1.410350000000000037e+01 1.210529174991449341e+06
1.414109999999999978e+01 1.206554293780021369e+06
1.417869999999999919e+01 1.202896124026639387e+06
1.421630000000000038e+01 1.200996077781378292e+06
1.425389999999999979e+01 1.201528732257920783e+06
1.429149999999999920e+01 1.203611273356868420e+06
1.432910000000000039e+01 1.204521636545185000e+06
1.436669999999999980e+01 1.202201259422057541e+06
1.440429999999999922e+01 1.197518097358962055e+06
1.444200000000000017e+01 1.192882115425920580e+06
1.447959999999999958e+01 1.189458745719463099e+06
1.451720000000000077e+01 1.186878303060757462e+06
1.455480000000000018e+01 1.183890928615999408e+06
1.459239999999999959e+01 1.179321036568447016e+06
1.463000000000000078e+01 1.172535356358036632e+06
1.466760000000000019e+01 1.163479374842962250e+06
1.470519999999999960e+01 1.153166844583164901e+06
1.474280000000000079e+01 1.143208683319671545e+06
1.478040000000000020e+01 1.134371632864980493e+06
1.481809999999999938e+01 1.125527067847583210e+06
1.485570000000000057e+01 1.116575188709756127e+06
1.489329999999999998e+01 1.108288856054855743e+06
1.493089999999999939e+01 1.101190783103506779e+06
1.496850000000000058e+01 1.095222171074246289e+06
