# energy(eV) alpha
0.000000000000000000e+00 0.000000000000000000e+00
3.549999999999999684e-02 1.110394191511603207e-01
7.099999999999999367e-02 6.662238240834239544e-01
1.064999999999999974e-01 1.332422268211985505e+00
1.419999999999999873e-01 2.664743022406868000e+00
1.774999999999999911e-01 3.885935554919889956e+00
2.131000000000000116e-01 5.775807151857201838e+00
2.485999999999999877e-01 7.774110335550657780e+00
2.841000000000000192e-01 1.006811468578453628e+01
3.195999999999999952e-01 1.265755404562866104e+01
3.551000000000000267e-01 1.591265810277384318e+01
3.906000000000000028e-01 1.912976454548418914e+01
4.260999999999999788e-01 2.308579473953490790e+01
4.616000000000000103e-01 2.692969672145399684e+01
4.970999999999999863e-01 3.106830729434914673e+01
5.325999999999999623e-01 3.605568895259420970e+01
5.681000000000000494e-01 4.081944818968857902e+01
6.037000000000000144e-01 4.651332472200761003e+01
6.391999999999999904e-01 5.190203296783101905e+01
6.746999999999999664e-01 5.828571026092517826e+01
7.102000000000000535e-01 6.429701111987884588e+01
7.457000000000000295e-01 7.060151243513828945e+01
7.812000000000000055e-01 7.800969724584865617e+01
8.166999999999999815e-01 8.493401096009291962e+01
8.521999999999999575e-01 9.303602762711761898e+01
8.877000000000000446e-01 1.005793591778290903e+02
9.232000000000000206e-01 1.093722581332189066e+02
9.586999999999999966e-01 1.185280622528064640e+02
9.942999999999999616e-01 1.270286871705464193e+02
1.029800000000000049e+00 1.368725187742321907e+02
1.065299999999999914e+00 1.470791753072095389e+02
1.100800000000000001e+00 1.576463609238041386e+02
1.136300000000000088e+00 1.685733549362763597e+02
1.171799999999999953e+00 1.786452681807310228e+02
1.207300000000000040e+00 1.902532951487509365e+02
1.242799999999999905e+00 2.035094295381011875e+02
1.278299999999999992e+00 2.132208234471413277e+02
1.313800000000000079e+00 2.272249868068596754e+02
1.349399999999999933e+00 2.416762500118043988e+02
1.384900000000000020e+00 2.551022940640895342e+02
1.420400000000000107e+00 2.688850253580495178e+02
1.455899999999999972e+00 2.830187266408694313e+02
1.491400000000000059e+00 2.990455090556932873e+02
1.526899999999999924e+00 3.139194161724893206e+02
1.562400000000000011e+00 3.307565360792844444e+02
1.597900000000000098e+00 3.463605614545334106e+02
1.633399999999999963e+00 3.640015482507199636e+02
1.668900000000000050e+00 3.803373722240198731e+02
1.704399999999999915e+00 3.987776279423850383e+02
1.739999999999999991e+00 4.176550087991451505e+02
1.775500000000000078e+00 4.369258692076177226e+02
1.810999999999999943e+00 4.566069758405044468e+02
1.846500000000000030e+00 4.766966084766372092e+02
1.881999999999999895e+00 4.971991458876540264e+02
1.917499999999999982e+00 5.181103501716522715e+02
1.953000000000000069e+00 5.394287833530366925e+02
1.988499999999999934e+00 5.631935338344867432e+02
2.024000000000000021e+00 5.874293129820222248e+02
2.059499999999999886e+00 6.100231677425849739e+02
2.095000000000000195e+00 6.330175786402094218e+02
2.130599999999999827e+00 6.607994679321170679e+02
2.166100000000000136e+00 6.868761840638641161e+02
2.201600000000000001e+00 7.111589348674507391e+02
2.237099999999999866e+00 7.404099342677260438e+02
2.272600000000000176e+00 7.678669400599341088e+02
2.308100000000000041e+00 7.981324091291301102e+02
2.343599999999999905e+00 8.265346345158789063e+02
2.379100000000000215e+00 8.578094703866443069e+02
2.414600000000000080e+00 8.920572135395491387e+02
2.450099999999999945e+00 9.194166363162013340e+02
2.485599999999999810e+00 9.547154000814747405e+02
2.521199999999999886e+00 9.880801058234629863e+02
2.556700000000000195e+00 1.024504378222640526e+03
2.592200000000000060e+00 1.061491192225505984e+03
2.627699999999999925e+00 1.099049757586673650e+03
2.663199999999999790e+00 1.137156961274883088e+03
2.698700000000000099e+00 1.175836171260125411e+03
2.734199999999999964e+00 1.215056310765250828e+03
2.769699999999999829e+00 1.257622194347779669e+03
2.805200000000000138e+00 1.300801836195769965e+03
2.840700000000000003e+00 1.341730541517626762e+03
2.876199999999999868e+00 1.388970397260895425e+03
2.911799999999999944e+00 1.436934672939112943e+03
2.947299999999999809e+00 1.482545539755403524e+03
2.982800000000000118e+00 1.534705501740081672e+03
3.018299999999999983e+00 1.581534168210433563e+03
3.053799999999999848e+00 1.635048452984911592e+03
3.089300000000000157e+00 1.689269253139337707e+03
3.124800000000000022e+00 1.747291468640736412e+03
3.160299999999999887e+00 1.802889375929515609e+03
3.195800000000000196e+00 1.862370082353952284e+03
3.231300000000000061e+00 1.922564536418055923e+03
3.266799999999999926e+00 1.986722050996394046e+03
3.302400000000000002e+00 2.051725103932722504e+03
3.337899999999999867e+00 2.117431628919543527e+03
3.373400000000000176e+00 2.187221110378773119e+03
3.408900000000000041e+00 2.261189067441798215e+03
3.444399999999999906e+00 2.336017868125499717e+03
3.479900000000000215e+00 2.411684581550288385e+03
3.515400000000000080e+00 2.491625186124083939e+03
3.550899999999999945e+00 2.572456092649746097e+03
3.586399999999999810e+00 2.661192510187142943e+03
3.621900000000000119e+00 2.747320656728782069e+03
3.657500000000000195e+00 2.841614896455215330e+03
3.693000000000000060e+00 2.933181740931656350e+03
3.728499999999999925e+00 3.036573117934668971e+03
3.763999999999999790e+00 3.133706510224224985e+03
3.799500000000000099e+00 3.242862917287803157e+03
3.834999999999999964e+00 3.356782032360538778e+03
3.870499999999999829e+00 3.468065101177583529e+03
3.906000000000000139e+00 3.591736688691035852e+03
3.941500000000000004e+00 3.716532803697007239e+03
3.976999999999999869e+00 3.846320592829632460e+03
4.012500000000000178e+00 3.984952485886629802e+03
4.048099999999999810e+00 4.124937858255990250e+03
4.083599999999999675e+00 4.277734911267551070e+03
4.119100000000000428e+00 4.435726699256507345e+03
4.154600000000000293e+00 4.599026328480877964e+03
4.190100000000000158e+00 4.775600537099425310e+03
4.225600000000000023e+00 4.961546633175249553e+03
4.261099999999999888e+00 5.148947804714914128e+03
4.296599999999999753e+00 5.357999775315195620e+03
4.332099999999999618e+00 5.576759209704234308e+03
4.367600000000000371e+00 5.805280604039549871e+03
4.403100000000000236e+00 6.051834443697800452e+03
4.438699999999999868e+00 6.312578649530601979e+03
4.474199999999999733e+00 6.595729287650970946e+03
4.509699999999999598e+00 6.897263404860308583e+03
4.545200000000000351e+00 7.225856610696350799e+03
4.580700000000000216e+00 7.581580690569163380e+03
4.616200000000000081e+00 7.973157972352691104e+03
4.651699999999999946e+00 8.409231585569219533e+03
4.687199999999999811e+00 8.890159450344270226e+03
4.722699999999999676e+00 9.446165877002276829e+03
4.758200000000000429e+00 1.007336394651946102e+04
4.793700000000000294e+00 1.082406070942932456e+04
4.829299999999999926e+00 1.171232567314908556e+04
4.864799999999999791e+00 1.279945006403961088e+04
4.900299999999999656e+00 1.412653991759908968e+04
4.935800000000000409e+00 1.575255634097866096e+04
4.971300000000000274e+00 1.770626214741869626e+04
5.006800000000000139e+00 2.003942975881439997e+04
5.042300000000000004e+00 2.275853186511303647e+04
5.077799999999999869e+00 2.571000339028996677e+04
5.113299999999999734e+00 2.875846256231476582e+04
5.148799999999999599e+00 3.187776325926088248e+04
5.184300000000000352e+00 3.492589293900267512e+04
5.219899999999999984e+00 3.782705896766990190e+04
5.255399999999999849e+00 4.079608550062047289e+04
5.290899999999999714e+00 4.398450696011508262e+04
5.326399999999999579e+00 4.742011534448012389e+04
5.361900000000000333e+00 5.124638549290798983e+04
5.397400000000000198e+00 5.550747751128013624e+04
5.432900000000000063e+00 5.997218525398620113e+04
5.468399999999999928e+00 6.435884244851546828e+04
5.503899999999999793e+00 6.863825740983747528e+04
5.539399999999999658e+00 7.289872132860666898e+04
5.574900000000000411e+00 7.716439235869626282e+04
5.610500000000000043e+00 8.136999204442651535e+04
5.645999999999999908e+00 8.559368717498292972e+04
5.681499999999999773e+00 9.023373185310943518e+04
5.716999999999999638e+00 9.554601783568982501e+04
5.752500000000000391e+00 1.014589533090015902e+05
5.788000000000000256e+00 1.080697196340799564e+05
5.823500000000000121e+00 1.156590281084227463e+05
5.858999999999999986e+00 1.244325940433031064e+05
5.894499999999999851e+00 1.346813876207904541e+05
5.929999999999999716e+00 1.468727966366826149e+05
5.965499999999999581e+00 1.614484492686531448e+05
6.001100000000000101e+00 1.786678121221609763e+05
6.036599999999999966e+00 1.988535630847917055e+05
6.072099999999999831e+00 2.216788838991927332e+05
6.107599999999999696e+00 2.458883914169774798e+05
6.143099999999999561e+00 2.701019021805719240e+05
6.178600000000000314e+00 2.932542021017480874e+05
6.214100000000000179e+00 3.147507548770739231e+05
6.249600000000000044e+00 3.341046637357020518e+05
6.285099999999999909e+00 3.511878178901140927e+05
6.320599999999999774e+00 3.668497020542099490e+05
6.356200000000000294e+00 3.822025070367946173e+05
6.391700000000000159e+00 3.978024806231283001e+05
6.427200000000000024e+00 4.136957997621926479e+05
6.462699999999999889e+00 4.297310804675008985e+05
6.498199999999999754e+00 4.454154069292356726e+05
6.533699999999999619e+00 4.597501085777519038e+05
6.569200000000000372e+00 4.719683999579752563e+05
6.604700000000000237e+00 4.824719725159051595e+05
6.640200000000000102e+00 4.918977420611092821e+05
6.675699999999999967e+00 5.004648703127850895e+05
6.711199999999999832e+00 5.081084605859409203e+05
6.746800000000000352e+00 5.149692929865865735e+05
6.782300000000000217e+00 5.210100753593849950e+05
6.817800000000000082e+00 5.257007313131181290e+05
6.853299999999999947e+00 5.290994169938445557e+05
6.888799999999999812e+00 5.320415437965309247e+05
6.924299999999999677e+00 5.349496379152813461e+05
6.959800000000000431e+00 5.379687669259776594e+05
6.995300000000000296e+00 5.413899713873153087e+05
7.030800000000000161e+00 5.449643452227327507e+05
7.066300000000000026e+00 5.479516767967805499e+05
7.101799999999999891e+00 5.502095608625961468e+05
7.137400000000000411e+00 5.524388878919320414e+05
7.172900000000000276e+00 5.552434023244313430e+05
7.208400000000000141e+00 5.584146315771952504e+05
7.243900000000000006e+00 5.615081923130336218e+05
7.279399999999999871e+00 5.645705433138811495e+05
7.314899999999999736e+00 5.676661550172460265e+05
7.350399999999999601e+00 5.711231990457896609e+05
7.385900000000000354e+00 5.759513166872086003e+05
7.421400000000000219e+00 5.824411558383009396e+05
7.456900000000000084e+00 5.899067908978984924e+05
7.492399999999999949e+00 5.977195773622695124e+05
7.527999999999999581e+00 6.052706973299907986e+05
7.563500000000000334e+00 6.120625437364858808e+05
7.599000000000000199e+00 6.182166504366125446e+05
7.634500000000000064e+00 6.240867393371952930e+05
7.669999999999999929e+00 6.301264939327184111e+05
7.705499999999999794e+00 6.369044877830983605e+05
7.740999999999999659e+00 6.445300105603637639e+05
7.776500000000000412e+00 6.518372060459383065e+05
7.812000000000000277e+00 6.574965202068748185e+05
7.847500000000000142e+00 6.608749451988533838e+05
7.883000000000000007e+00 6.618457559592181351e+05
7.918599999999999639e+00 6.608789519344845321e+05
7.954100000000000392e+00 6.591089274593011942e+05
7.989600000000000257e+00 6.577782949971616035e+05
8.025100000000000122e+00 6.573737792522581294e+05
8.060600000000000875e+00 6.570099718394997763e+05
8.096099999999999852e+00 6.555780516727184877e+05
8.131600000000000605e+00 6.531074008844249183e+05
8.167099999999999582e+00 6.499780757491495460e+05
8.202600000000000335e+00 6.464055769932459807e+05
8.238099999999999312e+00 6.426797707026696298e+05
8.273600000000000065e+00 6.385251029930989025e+05
8.309200000000000585e+00 6.340482348106665304e+05
8.344699999999999562e+00 6.297504710517037893e+05
8.380200000000000315e+00 6.258842297127568163e+05
8.415699999999999292e+00 6.226288431292757159e+05
8.451200000000000045e+00 6.199400187832934316e+05
8.486700000000000799e+00 6.178673066436249064e+05
8.522199999999999775e+00 6.170048898917350452e+05
8.557700000000000529e+00 6.179646511407406069e+05
8.593199999999999505e+00 6.210233681671911618e+05
8.628700000000000259e+00 6.261156324890319956e+05
8.664300000000000779e+00 6.329891693540785927e+05
8.699799999999999756e+00 6.407514804626462283e+05
8.735300000000000509e+00 6.482260608358253958e+05
8.770799999999999486e+00 6.550741153012727154e+05
8.806300000000000239e+00 6.614623388881953433e+05
8.841799999999999216e+00 6.672860952463152353e+05
8.877299999999999969e+00 6.726652556321712909e+05
8.912800000000000722e+00 6.779338473500822438e+05
8.948299999999999699e+00 6.826862756372143049e+05
8.983800000000000452e+00 6.859624960219074273e+05
9.019299999999999429e+00 6.873038897803935688e+05
9.054899999999999949e+00 6.872805641772474628e+05
9.090400000000000702e+00 6.865088061784143792e+05
9.125899999999999679e+00 6.853413292069445597e+05
9.161400000000000432e+00 6.843497989558267873e+05
9.196899999999999409e+00 6.842490739931758726e+05
9.232400000000000162e+00 6.851174696548342472e+05
9.267899999999999139e+00 6.864324024674495449e+05
9.303399999999999892e+00 6.878794734001662582e+05
9.338900000000000645e+00 6.897040927484752610e+05
9.374399999999999622e+00 6.919812731578556122e+05
9.409900000000000375e+00 6.948501765381816076e+05
9.445499999999999119e+00 6.983700388849563897e+05
9.480999999999999872e+00 7.019994079218071420e+05
9.516500000000000625e+00 7.052185948563043494e+05
9.551999999999999602e+00 7.082031130450859200e+05
9.587500000000000355e+00 7.115097606211097445e+05
9.622999999999999332e+00 7.150713428875548998e+05
9.658500000000000085e+00 7.185188472727059852e+05
9.694000000000000838e+00 7.215096296669433359e+05
9.729499999999999815e+00 7.243455505127657671e+05
9.765000000000000568e+00 7.278312332045754883e+05
9.800499999999999545e+00 7.319880227903001942e+05
9.836100000000000065e+00 7.360129772518869722e+05
9.871600000000000819e+00 7.390785908891202416e+05
9.907099999999999795e+00 7.406309134533662582e+05
9.942600000000000549e+00 7.405189222272380721e+05
9.978099999999999525e+00 7.395411669429449830e+05
1.001360000000000028e+01 7.385815321005417500e+05
1.004909999999999926e+01 7.378132521617836319e+05
1.008460000000000001e+01 7.373038899152699159e+05
1.012010000000000076e+01 7.372773755175453844e+05
1.015559999999999974e+01 7.372484812575330725e+05
1.019110000000000049e+01 7.360751471085239900e+05
1.022669999999999924e+01 7.333472961798727047e+05
1.026219999999999999e+01 7.295649206225920934e+05
1.029770000000000074e+01 7.254776678686903324e+05
1.033319999999999972e+01 7.213764214418237098e+05
1.036870000000000047e+01 7.173338576954824384e+05
1.040419999999999945e+01 7.134235241863320116e+05
1.043970000000000020e+01 7.100266341486037709e+05
1.047519999999999918e+01 7.072621388583515072e+05
1.051069999999999993e+01 7.048195422007007292e+05
1.054620000000000068e+01 7.022357845628419891e+05
1.058169999999999966e+01 6.991045467184988083e+05
1.061730000000000018e+01 6.957874659572086530e+05
1.065279999999999916e+01 6.929794071806421271e+05
1.068829999999999991e+01 6.909628650705149630e+05
1.072380000000000067e+01 6.895816586040429538e+05
1.075929999999999964e+01 6.882963123027739348e+05
1.079480000000000040e+01 6.866398683082977077e+05
1.083029999999999937e+01 6.845027621638500132e+05
1.086580000000000013e+01 6.819366180215912173e+05
1.090130000000000088e+01 6.788524382227946771e+05
1.093679999999999986e+01 6.752829756665275199e+05
1.097240000000000038e+01 6.717988400937347906e+05
1.100789999999999935e+01 6.689125540890097618e+05
1.104340000000000011e+01 6.667499218690141570e+05
1.107890000000000086e+01 6.654215628502051113e+05
1.111439999999999984e+01 6.648641532436688431e+05
1.114990000000000059e+01 6.649787844593675109e+05
1.118539999999999957e+01 6.654329670863292413e+05
1.122090000000000032e+01 6.658165070007592440e+05
1.125639999999999930e+01 6.661272542234247085e+05
1.129190000000000005e+01 6.663707004301163834e+05
1.132740000000000080e+01 6.658654396780662937e+05
1.136299999999999955e+01 6.644140749122276902e+05
1.139850000000000030e+01 6.628765930012565805e+05
1.143399999999999928e+01 6.618931343272343511e+05
1.146950000000000003e+01 6.615953775419680169e+05
1.150500000000000078e+01 6.617329965710951947e+05
1.154049999999999976e+01 6.618623398045450449e+05
1.157600000000000051e+01 6.618093636127486825e+05
1.161149999999999949e+01 6.617376489696465433e+05
1.164700000000000024e+01 6.616043286909832386e+05
1.168249999999999922e+01 6.611515702741449932e+05
1.171799999999999997e+01 6.607230827013832750e+05
1.175360000000000049e+01 6.610123882306064479e+05
1.178909999999999947e+01 6.620144577796942322e+05
1.182460000000000022e+01 6.634407848489328753e+05
1.186009999999999920e+01 6.654426467743167887e+05
1.189559999999999995e+01 6.682212456196226412e+05
1.193110000000000070e+01 6.715361590403799200e+05
1.196659999999999968e+01 6.749311493002165807e+05
1.200210000000000043e+01 6.781847148165036924e+05
1.203759999999999941e+01 6.813324910903788405e+05
1.207310000000000016e+01 6.842489882095628418e+05
1.210859999999999914e+01 6.866087722099487437e+05
1.214419999999999966e+01 6.883813623117436655e+05
1.217970000000000041e+01 6.897948867184435949e+05
1.221519999999999939e+01 6.909460381109098671e+05
1.225070000000000014e+01 6.919332252590348944e+05
1.228619999999999912e+01 6.931349315094042104e+05
1.232169999999999987e+01 6.954039928514150670e+05
1.235720000000000063e+01 6.989160161602668231e+05
1.239269999999999960e+01 7.029641901312223636e+05
1.242820000000000036e+01 7.073702870605635690e+05
1.246369999999999933e+01 7.123429174718256108e+05
1.249920000000000009e+01 7.174067420272490708e+05
1.253480000000000061e+01 7.216382594858740922e+05
1.257029999999999959e+01 7.248191509559489787e+05
1.260580000000000034e+01 7.276132467592208413e+05
1.264129999999999932e+01 7.307124945202507079e+05
1.267680000000000007e+01 7.349799363420386799e+05
1.271230000000000082e+01 7.408970321062880103e+05
1.274779999999999980e+01 7.478338200014237082e+05
1.278330000000000055e+01 7.549032951943994267e+05
1.281879999999999953e+01 7.615965061166022206e+05
1.285430000000000028e+01 7.676775851143965265e+05
1.288979999999999926e+01 7.732224627133526374e+05
1.292539999999999978e+01 7.785983410378878471e+05
1.296090000000000053e+01 7.834819496338483877e+05
1.299639999999999951e+01 7.876221954147942597e+05
1.303190000000000026e+01 7.909897775565348566e+05
1.306739999999999924e+01 7.941715123628348811e+05
1.310289999999999999e+01 7.982779834137159633e+05
1.313840000000000074e+01 8.035559191853755619e+05
1.317389999999999972e+01 8.095146479521978181e+05
1.320940000000000047e+01 8.155621989489974221e+05
1.324489999999999945e+01 8.211630160931465216e+05
1.328040000000000020e+01 8.260664015152479988e+05
1.331600000000000072e+01 8.300359678977454314e+05
1.335149999999999970e+01 8.330249646457097260e+05
1.338700000000000045e+01 8.353700948873556918e+05
1.342249999999999943e+01 8.378738991919235559e+05
1.345800000000000018e+01 8.413666726513551548e+05
1.349349999999999916e+01 8.463402654804902850e+05
1.352899999999999991e+01 8.523643440626350930e+05
1.356450000000000067e+01 8.588315521760953125e+05
1.359999999999999964e+01 8.651626947820853675e+05
1.363550000000000040e+01 8.704847308053018060e+05
1.367109999999999914e+01 8.741961673088074895e+05
1.370659999999999989e+01 8.767614909210269107e+05
1.374210000000000065e+01 8.787498083200930851e+05
1.377759999999999962e+01 8.803396865739248460e+05
1.381310000000000038e+01 8.815399659032266354e+05
1.384859999999999935e+01 8.822435381865404779e+05
1.388410000000000011e+01 8.829195444796840893e+05
1.391960000000000086e+01 8.843588269817169057e+05
1.395509999999999984e+01 8.865863294940377818e+05
1.399060000000000059e+01 8.890233417003881186e+05
1.402609999999999957e+01 8.911226516923442250e+05
1.406170000000000009e+01 8.928293000350345392e+05
1.409720000000000084e+01 8.939314336714359233e+05
1.413269999999999982e+01 8.940294206068774220e+05
