# energy(eV) alpha
0.000000000000000000e+00 0.000000000000000000e+00
4.039999999999999841e-02 2.397461630902820717e-01
8.069999999999999396e-02 1.197219873055950901e+00
1.210999999999999993e-01 2.515099621655844775e+00
1.615000000000000047e-01 4.791353817598925424e+00
2.018000000000000071e-01 7.183827147092380017e+00
2.421999999999999986e-01 1.053699709423542963e+01
2.826000000000000179e-01 1.424902870955604328e+01
3.230000000000000093e-01 1.883835241936009552e+01
3.633000000000000118e-01 2.405825589008377108e+01
4.037000000000000033e-01 2.952194924940318188e+01
4.440999999999999948e-01 3.598093112047892106e+01
4.843999999999999972e-01 4.258780448849295652e+01
5.248000000000000442e-01 5.027650655657102874e+01
5.652000000000000357e-01 5.804082724500775470e+01
6.055000000000000382e-01 6.694551230176951151e+01
6.459000000000000297e-01 7.649307858233558477e+01
6.863000000000000211e-01 8.667145155028504178e+01
7.266000000000000236e-01 9.674987744879170748e+01
7.670000000000000151e-01 1.089032782468420493e+02
8.074000000000000066e-01 1.201713273574470833e+02
8.477999999999999980e-01 1.328228954722825108e+02
8.881000000000000005e-01 1.469572647831930112e+02
9.284999999999999920e-01 1.599807233266033677e+02
9.688999999999999835e-01 1.754557017540185200e+02
1.009200000000000097e+00 1.906173869042043236e+02
1.049600000000000088e+00 2.074472112071026118e+02
1.090000000000000080e+00 2.239027687896413568e+02
1.130300000000000082e+00 2.420617953665950211e+02
1.170700000000000074e+00 2.609334279979519238e+02
1.211100000000000065e+00 2.804919935112993130e+02
1.251500000000000057e+00 3.007364707285262284e+02
1.291800000000000059e+00 3.216449081978682329e+02
1.332200000000000051e+00 3.432570601876992100e+02
1.372600000000000042e+00 3.655479760787548571e+02
1.412900000000000045e+00 3.884874702690071331e+02
1.453300000000000036e+00 4.149691507187104662e+02
1.493700000000000028e+00 4.393561008622173176e+02
1.534000000000000030e+00 4.658807417632324359e+02
1.574400000000000022e+00 4.947097977747508821e+02
1.614800000000000013e+00 5.212067774896324863e+02
1.655100000000000016e+00 5.531639164163905207e+02
1.695500000000000007e+00 5.810841021302660465e+02
1.735899999999999999e+00 6.147183502091593255e+02
1.776299999999999990e+00 6.475042150348281211e+02
1.816599999999999993e+00 6.810402465540144021e+02
1.856999999999999984e+00 7.172050682024656680e+02
1.897399999999999975e+00 7.542269916824313896e+02
1.937699999999999978e+00 7.920599343992561217e+02
1.978099999999999969e+00 8.307837594684671103e+02
2.018499999999999961e+00 8.703491738056187614e+02
2.058800000000000185e+00 9.126898982873569821e+02
2.099200000000000177e+00 9.559828935851880942e+02
2.139600000000000168e+00 1.002225536838777657e+03
2.179899999999999949e+00 1.047291516811466636e+03
2.220299999999999940e+00 1.097548371938554055e+03
2.260699999999999932e+00 1.148834902712910889e+03
2.301099999999999923e+00 1.198917278348281116e+03
2.341400000000000148e+00 1.252119491649964175e+03
2.381800000000000139e+00 1.306360087767414143e+03
2.422200000000000131e+00 1.368531723152939776e+03
2.462499999999999911e+00 1.424788739858126064e+03
2.502899999999999903e+00 1.489221065670756388e+03
2.543299999999999894e+00 1.552376194834564103e+03
2.583600000000000119e+00 1.619012265692112578e+03
2.624000000000000110e+00 1.686838116478070106e+03
2.664400000000000102e+00 1.763377348482388697e+03
2.704699999999999882e+00 1.836029034338889460e+03
2.745099999999999874e+00 1.915095681601588694e+03
2.785499999999999865e+00 1.995443760366969400e+03
2.825899999999999856e+00 2.079699459235815084e+03
2.866200000000000081e+00 2.165196375341678049e+03
2.906600000000000072e+00 2.257515470619858661e+03
2.947000000000000064e+00 2.351238930167625767e+03
2.987299999999999844e+00 2.451819685352843862e+03
3.027699999999999836e+00 2.556802758293394163e+03
3.068099999999999827e+00 2.663283693901085371e+03
3.108400000000000052e+00 2.776960664388075656e+03
3.148800000000000043e+00 2.895209333725159922e+03
3.189200000000000035e+00 3.015082216169178537e+03
3.229499999999999815e+00 3.145384509914555565e+03
3.269899999999999807e+00 3.280486779746563570e+03
3.310299999999999798e+00 3.423448090157823117e+03
3.350699999999999790e+00 3.574364260979729352e+03
3.391000000000000014e+00 3.730137240009901689e+03
3.431400000000000006e+00 3.897322128792668536e+03
3.471799999999999997e+00 4.072784652401758194e+03
3.512100000000000222e+00 4.262931487233169719e+03
3.552500000000000213e+00 4.458591771968879584e+03
3.592900000000000205e+00 4.669378692296992085e+03
3.633199999999999985e+00 4.892184394065390734e+03
3.673599999999999977e+00 5.130607067240673132e+03
3.713999999999999968e+00 5.388101001312553308e+03
3.754399999999999959e+00 5.664856238280236539e+03
3.794700000000000184e+00 5.960982648543401410e+03
3.835100000000000176e+00 6.283795797308516740e+03
3.875500000000000167e+00 6.640226809743005106e+03
3.915799999999999947e+00 7.027106264397781160e+03
3.956199999999999939e+00 7.455376655684039179e+03
3.996599999999999930e+00 7.942715168900819663e+03
4.036900000000000155e+00 8.489500159572467965e+03
4.077300000000000146e+00 9.124769347561539689e+03
4.117700000000000138e+00 9.866890455975159057e+03
4.158000000000000362e+00 1.076270999670727360e+04
4.198400000000000354e+00 1.187483519149881613e+04
4.238800000000000345e+00 1.330946262011085491e+04
4.279200000000000337e+00 1.517541730458415805e+04
4.319499999999999673e+00 1.749299162226783665e+04
4.359899999999999665e+00 2.021609442519475488e+04
4.400299999999999656e+00 2.353326890596740486e+04
4.440599999999999881e+00 2.770787684315764636e+04
4.480999999999999872e+00 3.245339855941240239e+04
4.521399999999999864e+00 3.695433483484412864e+04
4.561700000000000088e+00 4.147996798458813282e+04
4.602100000000000080e+00 4.667389918090874562e+04
4.642500000000000071e+00 5.188866198741344124e+04
4.682800000000000296e+00 5.590173084690814721e+04
4.723200000000000287e+00 5.888092693166607933e+04
4.763600000000000279e+00 6.193043012480686593e+04
4.804000000000000270e+00 6.532953340728352487e+04
4.844299999999999606e+00 6.898366453207128507e+04
4.884699999999999598e+00 7.344977904798682721e+04
4.925099999999999589e+00 7.976894485435525712e+04
4.965399999999999814e+00 8.776876265945781779e+04
5.005799999999999805e+00 9.568864550141434302e+04
5.046199999999999797e+00 1.014421070564311958e+05
5.086500000000000021e+00 1.046658921985044435e+05
5.126900000000000013e+00 1.064412041362700984e+05
5.167300000000000004e+00 1.079931505789155199e+05
5.207600000000000229e+00 1.105411809330113174e+05
5.248000000000000220e+00 1.149360769539329194e+05
5.288400000000000212e+00 1.217935454395462730e+05
5.328800000000000203e+00 1.310468154602380819e+05
5.369100000000000428e+00 1.413588352553264704e+05
5.409500000000000419e+00 1.515812553602363623e+05
5.449900000000000411e+00 1.619300030200590263e+05
5.490199999999999747e+00 1.732111861759507447e+05
5.530599999999999739e+00 1.866076083054402261e+05
5.570999999999999730e+00 2.042152034115837305e+05
5.611299999999999955e+00 2.277181668188486656e+05
5.651699999999999946e+00 2.564323239724769373e+05
5.692099999999999937e+00 2.878707849106215872e+05
5.732499999999999929e+00 3.202213665581240784e+05
5.772800000000000153e+00 3.525644890654006158e+05
5.813200000000000145e+00 3.832190506220289390e+05
5.853600000000000136e+00 4.091664507287638844e+05
5.893900000000000361e+00 4.300364924178033252e+05
5.934300000000000352e+00 4.486224664636880043e+05
5.974700000000000344e+00 4.686395258980268263e+05
6.014999999999999680e+00 4.913814946824973449e+05
6.055399999999999672e+00 5.126539767272238969e+05
6.095799999999999663e+00 5.270719342287372565e+05
6.136099999999999888e+00 5.343884148357704980e+05
6.176499999999999879e+00 5.395599352950911270e+05
6.216899999999999871e+00 5.480709195262383437e+05
6.257299999999999862e+00 5.601526218281915644e+05
6.297600000000000087e+00 5.728400943574327976e+05
6.338000000000000078e+00 5.842956189234344056e+05
6.378400000000000070e+00 5.932925780178672867e+05
6.418700000000000294e+00 5.978161696959822439e+05
6.459100000000000286e+00 5.981314772048941813e+05
6.499500000000000277e+00 5.972304818388849963e+05
6.539799999999999613e+00 5.968082021318504121e+05
6.580199999999999605e+00 5.973166194640726317e+05
6.620599999999999596e+00 6.001209726931089535e+05
6.660899999999999821e+00 6.066238695758571848e+05
6.701299999999999812e+00 6.166037527044540038e+05
6.741699999999999804e+00 6.287958974080689950e+05
6.782099999999999795e+00 6.421336893966958160e+05
6.822400000000000020e+00 6.555831854582187952e+05
6.862800000000000011e+00 6.673301199419852346e+05
6.903200000000000003e+00 6.768937502058941172e+05
6.943500000000000227e+00 6.852705980999513995e+05
6.983900000000000219e+00 6.937414374749563867e+05
7.024300000000000210e+00 7.036081112771156477e+05
7.064600000000000435e+00 7.154717218764190329e+05
7.105000000000000426e+00 7.284255438233704772e+05
7.145400000000000418e+00 7.409380569845810533e+05
7.185699999999999754e+00 7.514313170836929930e+05
7.226099999999999746e+00 7.581943159256842919e+05
7.266499999999999737e+00 7.597305443661819445e+05
7.306899999999999729e+00 7.562919103339586873e+05
7.347199999999999953e+00 7.500074112262922572e+05
7.387599999999999945e+00 7.428344093545118812e+05
7.427999999999999936e+00 7.362437134713982232e+05
7.468300000000000161e+00 7.313545916182402289e+05
7.508700000000000152e+00 7.281925888571977848e+05
7.549100000000000144e+00 7.260899312876302283e+05
7.589400000000000368e+00 7.243915459793148329e+05
7.629800000000000360e+00 7.235076778585807187e+05
7.670200000000000351e+00 7.237009973741516005e+05
7.710499999999999687e+00 7.250314862245938275e+05
7.750899999999999679e+00 7.284491457484175917e+05
7.791299999999999670e+00 7.357321728514578426e+05
7.831699999999999662e+00 7.476801206616809359e+05
7.871999999999999886e+00 7.640690737781765638e+05
7.912399999999999878e+00 7.843425347276043613e+05
7.952799999999999869e+00 8.066913864397419384e+05
7.993100000000000094e+00 8.279914882731044199e+05
8.033500000000000085e+00 8.468912077500447631e+05
8.073900000000000077e+00 8.629809045769897057e+05
8.114200000000000301e+00 8.753270474348636344e+05
8.154600000000000293e+00 8.845893687296337448e+05
8.195000000000000284e+00 8.930780262606510660e+05
8.235400000000000276e+00 9.017620496604585787e+05
8.275700000000000500e+00 9.089379404229938518e+05
8.316100000000000492e+00 9.121671753960998030e+05
8.356500000000000483e+00 9.108684693886577152e+05
8.396800000000000708e+00 9.071263510039710673e+05
8.437200000000000699e+00 9.033651118672824232e+05
8.477600000000000691e+00 8.998926025301860645e+05
8.517899999999999139e+00 8.958254508381000487e+05
8.558299999999999130e+00 8.911239232754998375e+05
8.598699999999999122e+00 8.861789018277297728e+05
8.638999999999999346e+00 8.800259994035995333e+05
8.679399999999999338e+00 8.718953494077787036e+05
8.719799999999999329e+00 8.625366348988205427e+05
8.760199999999999321e+00 8.535769612796844449e+05
8.800499999999999545e+00 8.459374826436876319e+05
8.840899999999999537e+00 8.397816592582709854e+05
8.881299999999999528e+00 8.348283438596751075e+05
8.921599999999999753e+00 8.315097861181586049e+05
8.961999999999999744e+00 8.306421156506906264e+05
9.002399999999999736e+00 8.326520132841391023e+05
9.042699999999999960e+00 8.365477717211631825e+05
9.083099999999999952e+00 8.405948309133128496e+05
9.123499999999999943e+00 8.427772613068762003e+05
9.163800000000000168e+00 8.419893651668437524e+05
9.204200000000000159e+00 8.392805319713676581e+05
9.244600000000000151e+00 8.360379723073602654e+05
9.285000000000000142e+00 8.323757948254870716e+05
9.325300000000000367e+00 8.278720331959279720e+05
9.365700000000000358e+00 8.226411342761763372e+05
9.406100000000000350e+00 8.178180941364646424e+05
9.446400000000000574e+00 8.134905888230161509e+05
9.486800000000000566e+00 8.085616310931890039e+05
9.527200000000000557e+00 8.030271236228984781e+05
9.567500000000000782e+00 7.977806389860736672e+05
9.607900000000000773e+00 7.931089367286477936e+05
9.648300000000000765e+00 7.886493643470514799e+05
9.688599999999999213e+00 7.848688306468868395e+05
9.728999999999999204e+00 7.827772362400895217e+05
9.769399999999999196e+00 7.824720043439053698e+05
9.809799999999999187e+00 7.834515428324905224e+05
9.850099999999999412e+00 7.853308818716821261e+05
9.890499999999999403e+00 7.880698691637946758e+05
9.930899999999999395e+00 7.916472619135435671e+05
9.971199999999999619e+00 7.956731474768667249e+05
1.001159999999999961e+01 7.994781867675187532e+05
1.005199999999999960e+01 8.026633454337540315e+05
1.009229999999999983e+01 8.052777920854811091e+05
1.013269999999999982e+01 8.064786182375141652e+05
1.017309999999999981e+01 8.053952002082959516e+05
1.021349999999999980e+01 8.023177316354364157e+05
1.025380000000000003e+01 7.977474967995284824e+05
1.029420000000000002e+01 7.927952583470349200e+05
1.033460000000000001e+01 7.889361435460837092e+05
1.037490000000000023e+01 7.869090543312000809e+05
1.041530000000000022e+01 7.866641848133060848e+05
1.045570000000000022e+01 7.878457462685287464e+05
1.049600000000000044e+01 7.901999100634821225e+05
1.053640000000000043e+01 7.932310538905450376e+05
1.057680000000000042e+01 7.949249269902975066e+05
1.061710000000000065e+01 7.934150839212501887e+05
1.065750000000000064e+01 7.897079036737983115e+05
1.069790000000000063e+01 7.855223301889671711e+05
1.073830000000000062e+01 7.816100872864326229e+05
1.077860000000000085e+01 7.773414762805729406e+05
1.081900000000000084e+01 7.722478108221576549e+05
1.085940000000000083e+01 7.679835422552798409e+05
1.089969999999999928e+01 7.662042613741930109e+05
1.094009999999999927e+01 7.665563328768691281e+05
1.098049999999999926e+01 7.677351809236503905e+05
1.102079999999999949e+01 7.685304334423163673e+05
1.106119999999999948e+01 7.683996541913733818e+05
1.110159999999999947e+01 7.669218298749488313e+05
1.114189999999999969e+01 7.644718306213566102e+05
1.118229999999999968e+01 7.618370399077214533e+05
1.122269999999999968e+01 7.589258985240126494e+05
1.126309999999999967e+01 7.553321228608825477e+05
1.130339999999999989e+01 7.523728953916969476e+05
1.134379999999999988e+01 7.516696695545872208e+05
1.138419999999999987e+01 7.530048881017353851e+05
1.142450000000000010e+01 7.553480383822855074e+05
1.146490000000000009e+01 7.582887488505047513e+05
1.150530000000000008e+01 7.607503111362926429e+05
1.154560000000000031e+01 7.616232139103943482e+05
1.158600000000000030e+01 7.617098207449949114e+05
1.162640000000000029e+01 7.625280679834493203e+05
1.166670000000000051e+01 7.652016046738703735e+05
1.170710000000000051e+01 7.694071224239558214e+05
1.174750000000000050e+01 7.740862296628173208e+05
1.178790000000000049e+01 7.791252798097681953e+05
1.182820000000000071e+01 7.836985000113429269e+05
1.186860000000000070e+01 7.869651773794372566e+05
1.190900000000000070e+01 7.892945464778454043e+05
1.194929999999999914e+01 7.910171446816694224e+05
1.198969999999999914e+01 7.924923890154930996e+05
1.203009999999999913e+01 7.941763807163991733e+05
1.207039999999999935e+01 7.962719882630842039e+05
1.211079999999999934e+01 7.991952553593358025e+05
1.215119999999999933e+01 8.039338668027905514e+05
1.219149999999999956e+01 8.108711932593273232e+05
1.223189999999999955e+01 8.189504541161010275e+05
1.227229999999999954e+01 8.268181470691498835e+05
1.231269999999999953e+01 8.333542716255938867e+05
1.235299999999999976e+01 8.379346031686158385e+05
1.239339999999999975e+01 8.418358878850229084e+05
1.243379999999999974e+01 8.465671479014627403e+05
1.247409999999999997e+01 8.522519626276118215e+05
1.251449999999999996e+01 8.579202748246805277e+05
1.255489999999999995e+01 8.629373221288238419e+05
1.259520000000000017e+01 8.669749363519543549e+05
1.263560000000000016e+01 8.705117178287927527e+05
1.267600000000000016e+01 8.745068370943079935e+05
1.271640000000000015e+01 8.788006667236289941e+05
1.275670000000000037e+01 8.831218946645143442e+05
1.279710000000000036e+01 8.881910926012172131e+05
1.283750000000000036e+01 8.948597043002661085e+05
1.287780000000000058e+01 9.023984232965369010e+05
1.291820000000000057e+01 9.095779713072027080e+05
1.295860000000000056e+01 9.158126089758687885e+05
1.299890000000000079e+01 9.221836827910874272e+05
1.303930000000000078e+01 9.291968832165058702e+05
1.307970000000000077e+01 9.360977834684189875e+05
1.311999999999999922e+01 9.417386524422789225e+05
1.316039999999999921e+01 9.456453177003271412e+05
1.320079999999999920e+01 9.474263105195062235e+05
1.324119999999999919e+01 9.470657217938031536e+05
1.328149999999999942e+01 9.459894277799436823e+05
1.332189999999999941e+01 9.458647172226776602e+05
1.336229999999999940e+01 9.465882754649838898e+05
1.340259999999999962e+01 9.464737727748129983e+05
1.344299999999999962e+01 9.445584347334610065e+05
1.348339999999999961e+01 9.422666052971397294e+05
1.352369999999999983e+01 9.414689428540488007e+05
1.356409999999999982e+01 9.421244444866898702e+05
1.360449999999999982e+01 9.431855345933055505e+05
1.364480000000000004e+01 9.435335076518440619e+05
1.368520000000000003e+01 9.428561497756178724e+05
1.372560000000000002e+01 9.420047459736047313e+05
1.376600000000000001e+01 9.420819451167421648e+05
1.380630000000000024e+01 9.429299203981980681e+05
1.384670000000000023e+01 9.440453509505410912e+05
1.388710000000000022e+01 9.456259096126874210e+05
1.392740000000000045e+01 9.473894554171650670e+05
1.396780000000000044e+01 9.492511765753022628e+05
1.400820000000000043e+01 9.519947842220191378e+05
1.404850000000000065e+01 9.564074376968082506e+05
1.408890000000000065e+01 9.612078565168319037e+05
1.412930000000000064e+01 9.639434835663971025e+05
1.416960000000000086e+01 9.652265494784476468e+05
1.421000000000000085e+01 9.675580118397290353e+05
1.425040000000000084e+01 9.716467369616763899e+05
1.429080000000000084e+01 9.777758895535268821e+05
1.433109999999999928e+01 9.847197114998216275e+05
1.437149999999999928e+01 9.896963313450850546e+05
1.441189999999999927e+01 9.915736937651286134e+05
1.445219999999999949e+01 9.914578615861069411e+05
1.449259999999999948e+01 9.888900739274482476e+05
1.453299999999999947e+01 9.832976234629449900e+05
1.457329999999999970e+01 9.750862430909186369e+05
1.461369999999999969e+01 9.647422654122904642e+05
1.465409999999999968e+01 9.534258434948344948e+05
1.469439999999999991e+01 9.421395107768313028e+05
1.473479999999999990e+01 9.309533269043836044e+05
1.477519999999999989e+01 9.202615624815819319e+05
1.481559999999999988e+01 9.109281865122581366e+05
1.485590000000000011e+01 9.028139961227747845e+05
1.489630000000000010e+01 8.950683735040248139e+05
1.493670000000000009e+01 8.869154208916322095e+05
1.497700000000000031e+01 8.789937331517625134e+05
1.501740000000000030e+01 8.727240161234934349e+05
1.505780000000000030e+01 8.688663510236246511e+05
1.509810000000000052e+01 8.673418265930366470e+05
1.513850000000000051e+01 8.672362539351864252e+05
1.517890000000000050e+01 8.660407054237038828e+05
1.521930000000000049e+01 8.624612474115716759e+05
1.525960000000000072e+01 8.576454766009037849e+05
1.530000000000000071e+01 8.536982768691917881e+05
1.534040000000000070e+01 8.514505413758127252e+05
1.538069999999999915e+01 8.497162992450132733e+05
1.542109999999999914e+01 8.469834667225296143e+05
1.546149999999999913e+01 8.427626454087984748e+05
1.550179999999999936e+01 8.376929113747137599e+05
1.554219999999999935e+01 8.334626942593919812e+05
1.558259999999999934e+01 8.312160311301655602e+05
1.562289999999999957e+01 8.307908920904842671e+05
1.566329999999999956e+01 8.321514115583884995e+05
1.570369999999999955e+01 8.350550341250109486e+05
1.574409999999999954e+01 8.388812360682473518e+05
1.578439999999999976e+01 8.431289016727346461e+05
1.582479999999999976e+01 8.482573060256328899e+05
1.586519999999999975e+01 8.544900551402319688e+05
1.590549999999999997e+01 8.604424174872286385e+05
1.594589999999999996e+01 8.642118124155981932e+05
1.598629999999999995e+01 8.653739509346428094e+05
1.602659999999999840e+01 8.649034408951967489e+05
1.606700000000000017e+01 8.639851922691870714e+05
