# energy(eV) alpha
0.000000000000000000e+00 0.000000000000000000e+00
4.030000000000000249e-02 1.452570306381921750e-01
8.069999999999999396e-02 6.786957227513428226e-01
1.209999999999999964e-01 1.744437873107473447e+00
1.612999999999999989e-01 2.906673227282796645e+00
2.016999999999999904e-01 4.361411068578446404e+00
2.419999999999999929e-01 6.395193949361067887e+00
2.823999999999999844e-01 9.158222458106811459e+00
3.226999999999999869e-01 1.162676891218128006e+01
3.629999999999999893e-01 1.438506487281471102e+01
4.033999999999999808e-01 1.792163669121923064e+01
4.436999999999999833e-01 2.184011028626160567e+01
4.839999999999999858e-01 2.614409499896301270e+01
5.243999999999999773e-01 3.083959853677448137e+01
5.646999999999999797e-01 3.591455912626008029e+01
6.049999999999999822e-01 4.064772889024676061e+01
6.453999999999999737e-01 4.645036456021389881e+01
6.856999999999999762e-01 5.345170199549751544e+01
7.259999999999999787e-01 5.919223351457020499e+01
7.663999999999999702e-01 6.706436460670272481e+01
8.066999999999999726e-01 7.444071864808486794e+01
8.470999999999999641e-01 8.119181491993258248e+01
8.873999999999999666e-01 9.034610557412725029e+01
9.276999999999999691e-01 9.886388489905999677e+01
9.680999999999999606e-01 1.066147419564070162e+02
1.008399999999999963e+00 1.170511528407168527e+02
1.048699999999999966e+00 1.267063870764493458e+02
1.089099999999999957e+00 1.367509985489710118e+02
1.129399999999999959e+00 1.485107800754054210e+02
1.169699999999999962e+00 1.593419625647999283e+02
1.210099999999999953e+00 1.720095171715792617e+02
1.250399999999999956e+00 1.836373623634825378e+02
1.290799999999999947e+00 1.971946547280362552e+02
1.331099999999999950e+00 2.096135688232844814e+02
1.371399999999999952e+00 2.256748318864596570e+02
1.411799999999999944e+00 2.389438781680800048e+02
1.452099999999999946e+00 2.542958812622002540e+02
1.492399999999999949e+00 2.701085808597150617e+02
1.532799999999999940e+00 2.845726578059124563e+02
1.573099999999999943e+00 3.031294828894960460e+02
1.613399999999999945e+00 3.203159716550702569e+02
1.653799999999999937e+00 3.379775373942383681e+02
1.694099999999999939e+00 3.560693451020716793e+02
1.734399999999999942e+00 3.766705374485707694e+02
1.774799999999999933e+00 3.978398529185006964e+02
1.815099999999999936e+00 4.173699560190423199e+02
1.855499999999999927e+00 4.395668353339406735e+02
1.895799999999999930e+00 4.622805147459083059e+02
1.936099999999999932e+00 4.855204905780545346e+02
1.976499999999999924e+00 5.093216909073747161e+02
2.016799999999999926e+00 5.336229051583109140e+02
2.057100000000000151e+00 5.584463521928838645e+02
2.097500000000000142e+00 5.862955019807747021e+02
2.137799999999999923e+00 6.172446894821287060e+02
2.178100000000000147e+00 6.437595706483963340e+02
2.218500000000000139e+00 6.708203390511794169e+02
2.258799999999999919e+00 7.036640683145508319e+02
2.299199999999999910e+00 7.345292196000400509e+02
2.339500000000000135e+00 7.686990996379270200e+02
2.379799999999999915e+00 8.035388024147963506e+02
2.420199999999999907e+00 8.362566400546620571e+02
2.460500000000000131e+00 8.752709465385808016e+02
2.500799999999999912e+00 9.150294192852019250e+02
2.541199999999999903e+00 9.555790527001250894e+02
2.581500000000000128e+00 9.968257488977412777e+02
2.621799999999999908e+00 1.038800101854124023e+03
2.662199999999999900e+00 1.081536651965478541e+03
2.702500000000000124e+00 1.128100175217245578e+03
2.742900000000000116e+00 1.175493462517379612e+03
2.783199999999999896e+00 1.226871744136625693e+03
2.823500000000000121e+00 1.275836477843040939e+03
2.863900000000000112e+00 1.332249774114617594e+03
2.904199999999999893e+00 1.389543516015531623e+03
2.944500000000000117e+00 1.444354670949808906e+03
2.984900000000000109e+00 1.506919166262000999e+03
3.025199999999999889e+00 1.570426192308699456e+03
3.065500000000000114e+00 1.634877513705636375e+03
3.105900000000000105e+00 1.703904917351521135e+03
3.146199999999999886e+00 1.773919955294946249e+03
3.186500000000000110e+00 1.848555137723210237e+03
3.226900000000000102e+00 1.931719474477921494e+03
3.267199999999999882e+00 2.012268519740631518e+03
3.307599999999999874e+00 2.101544865146359371e+03
3.347900000000000098e+00 2.191985419166993779e+03
3.388199999999999878e+00 2.287492142002807213e+03
3.428599999999999870e+00 2.384330095454859475e+03
3.468900000000000095e+00 2.490182544876790871e+03
3.509199999999999875e+00 2.605302346785281770e+03
3.549599999999999866e+00 2.721970236543672399e+03
3.589900000000000091e+00 2.848052555658152869e+03
3.630199999999999871e+00 2.983811033830601900e+03
3.670599999999999863e+00 3.121299400210517888e+03
3.710900000000000087e+00 3.272669115097150552e+03
3.751300000000000079e+00 3.434261134864389533e+03
3.791599999999999859e+00 3.610145195019283619e+03
3.831900000000000084e+00 3.796436199440059681e+03
3.872300000000000075e+00 3.993376033023168475e+03
3.912599999999999856e+00 4.218026291148357814e+03
3.952900000000000080e+00 4.453631950816959943e+03
3.993300000000000072e+00 4.713503791038676354e+03
4.033599999999999852e+00 5.006411997814533606e+03
4.073900000000000077e+00 5.328485849166999287e+03
4.114300000000000068e+00 5.689117325177500788e+03
4.154600000000000293e+00 6.110786777859281756e+03
4.194899999999999629e+00 6.598864335134196153e+03
4.235299999999999621e+00 7.176788173108577212e+03
4.275599999999999845e+00 7.890761846173992126e+03
4.315999999999999837e+00 8.779022888615099873e+03
4.356300000000000061e+00 9.926184071339148431e+03
4.396600000000000286e+00 1.142822369573097421e+04
4.437000000000000277e+00 1.335113974528107610e+04
4.477299999999999613e+00 1.570636024489426018e+04
4.517599999999999838e+00 1.845137844503794622e+04
4.557999999999999829e+00 2.147807797465123804e+04
4.598300000000000054e+00 2.465984722934152524e+04
4.638600000000000279e+00 2.788568725761077440e+04
4.679000000000000270e+00 3.110325159619584520e+04
4.719299999999999606e+00 3.431805575247700472e+04
4.759699999999999598e+00 3.755897222168737790e+04
4.799999999999999822e+00 4.084042704334617156e+04
4.840300000000000047e+00 4.411466560859150195e+04
4.880700000000000038e+00 4.730542301370204950e+04
4.921000000000000263e+00 5.039588121444247372e+04
4.961299999999999599e+00 5.347502822882929468e+04
5.001699999999999591e+00 5.670745734072988125e+04
5.041999999999999815e+00 6.028236508065453381e+04
5.082300000000000040e+00 6.423372449652349314e+04
5.122700000000000031e+00 6.843757526281903847e+04
5.163000000000000256e+00 7.262295916248203139e+04
5.203299999999999592e+00 7.659731608763831900e+04
5.243699999999999584e+00 8.038153771143619088e+04
5.283999999999999808e+00 8.416308750337436504e+04
5.324399999999999800e+00 8.817109828742874379e+04
5.364700000000000024e+00 9.264725527460133890e+04
5.405000000000000249e+00 9.805532925522027654e+04
5.445400000000000240e+00 1.047154774376173591e+05
5.485699999999999577e+00 1.127437152336399449e+05
5.525999999999999801e+00 1.222868223743101989e+05
5.566399999999999793e+00 1.335872442102956411e+05
5.606700000000000017e+00 1.468392254572417878e+05
5.647000000000000242e+00 1.622758844008969900e+05
5.687400000000000233e+00 1.799513231144413585e+05
5.727699999999999569e+00 1.995207520821561629e+05
5.768099999999999561e+00 2.199849140240178967e+05
5.808399999999999785e+00 2.397026157955641102e+05
5.848700000000000010e+00 2.571911232486937079e+05
5.889100000000000001e+00 2.725801958035037387e+05
5.929400000000000226e+00 2.866491161809824989e+05
5.969699999999999562e+00 2.996907239182752091e+05
6.010100000000000442e+00 3.114805244883758132e+05
6.050399999999999778e+00 3.221345249671036145e+05
6.090700000000000003e+00 3.318544827166417963e+05
6.131099999999999994e+00 3.404724981813371996e+05
6.171400000000000219e+00 3.479218699112107279e+05
6.211800000000000210e+00 3.550408651269912370e+05
6.252100000000000435e+00 3.625383540313481935e+05
6.292399999999999771e+00 3.702279480472504511e+05
6.332799999999999763e+00 3.772400473753546830e+05
6.373099999999999987e+00 3.827737341744992882e+05
6.413400000000000212e+00 3.866573218784067431e+05
6.453800000000000203e+00 3.890952485968920519e+05
6.494100000000000428e+00 3.902398900882743183e+05
6.534399999999999764e+00 3.905162374123542686e+05
6.574799999999999756e+00 3.909179516672630562e+05
6.615099999999999980e+00 3.922829590995270410e+05
6.655400000000000205e+00 3.953526391681102104e+05
6.695800000000000196e+00 4.004697022007437190e+05
6.736100000000000421e+00 4.073463070423643803e+05
6.776500000000000412e+00 4.153532392613800475e+05
6.816799999999999748e+00 4.233472394791863044e+05
6.857099999999999973e+00 4.300592902834855486e+05
6.897499999999999964e+00 4.350730963106396375e+05
6.937800000000000189e+00 4.392113548998761689e+05
6.978100000000000414e+00 4.437630329209135380e+05
7.018500000000000405e+00 4.492625205641636276e+05
7.058799999999999741e+00 4.559704371930425405e+05
7.099099999999999966e+00 4.637472204984183190e+05
7.139499999999999957e+00 4.716035451973613235e+05
7.179800000000000182e+00 4.783759516237147618e+05
7.220200000000000173e+00 4.828658913371524541e+05
7.260500000000000398e+00 4.841785175727619207e+05
7.300799999999999734e+00 4.825243171107310336e+05
7.341199999999999726e+00 4.788921095811593696e+05
7.381499999999999950e+00 4.744037370269834646e+05
7.421800000000000175e+00 4.700155007119390066e+05
7.462200000000000166e+00 4.662973291878587333e+05
7.502500000000000391e+00 4.633467960468956153e+05
7.542799999999999727e+00 4.610681344265908119e+05
7.583199999999999719e+00 4.594411404749648063e+05
7.623499999999999943e+00 4.584980267677355441e+05
7.663800000000000168e+00 4.583708530435726279e+05
7.704200000000000159e+00 4.594700281524367165e+05
7.744500000000000384e+00 4.624637002561410773e+05
7.784900000000000375e+00 4.683252366652821656e+05
7.825199999999999712e+00 4.771430243875562446e+05
7.865499999999999936e+00 4.882951328759751632e+05
7.905899999999999928e+00 5.007879294356843457e+05
7.946200000000000152e+00 5.131210154850463732e+05
7.986500000000000377e+00 5.244217463604991790e+05
8.026899999999999480e+00 5.348994330124764238e+05
8.067199999999999704e+00 5.446750154238463147e+05
8.107499999999999929e+00 5.531062834594324231e+05
8.147899999999999920e+00 5.593213331908937544e+05
8.188200000000000145e+00 5.632633665366232162e+05
8.228600000000000136e+00 5.654336221068437444e+05
8.268900000000000361e+00 5.661119887942430796e+05
8.309200000000000585e+00 5.653810503938812762e+05
8.349600000000000577e+00 5.628855649210774573e+05
8.389900000000000801e+00 5.586046151513273362e+05
8.430199999999999250e+00 5.531364109293067595e+05
8.470599999999999241e+00 5.472128646741489647e+05
8.510899999999999466e+00 5.411812264868097845e+05
8.551199999999999690e+00 5.351423625440298347e+05
8.591599999999999682e+00 5.294523982754128519e+05
8.631899999999999906e+00 5.242302152158755343e+05
8.672200000000000131e+00 5.193006558546946617e+05
8.712600000000000122e+00 5.146464100855084253e+05
8.752900000000000347e+00 5.108084185151712154e+05
8.793300000000000338e+00 5.082377733167309198e+05
8.833600000000000563e+00 5.066574568772583734e+05
8.873900000000000787e+00 5.053445252465074882e+05
8.914300000000000779e+00 5.044534982400025474e+05
8.954599999999999227e+00 5.044744609580740216e+05
8.994899999999999451e+00 5.052686586107055773e+05
9.035299999999999443e+00 5.061562991276365356e+05
9.075599999999999667e+00 5.065868090186939226e+05
9.115899999999999892e+00 5.066888649787229369e+05
9.156299999999999883e+00 5.067289885165484739e+05
9.196600000000000108e+00 5.066326817969611147e+05
9.237000000000000099e+00 5.060872487982432940e+05
9.277300000000000324e+00 5.049618761943693389e+05
9.317600000000000549e+00 5.032689551163467113e+05
9.358000000000000540e+00 5.006836449339420651e+05
9.398300000000000765e+00 4.970143388500192086e+05
9.438599999999999213e+00 4.926544082159681129e+05
9.478999999999999204e+00 4.877818397991480888e+05
9.519299999999999429e+00 4.823060187432036619e+05
9.559599999999999653e+00 4.762406764846355654e+05
9.599999999999999645e+00 4.700923445411967696e+05
9.640299999999999869e+00 4.647562934780633659e+05
9.680699999999999861e+00 4.609043722005127929e+05
9.721000000000000085e+00 4.583158601055355975e+05
9.761300000000000310e+00 4.565092030185738695e+05
9.801700000000000301e+00 4.554200533950470854e+05
9.842000000000000526e+00 4.552290806348082260e+05
9.882300000000000750e+00 4.558482970243486343e+05
9.922700000000000742e+00 4.568004403464584611e+05
9.962999999999999190e+00 4.576994424028270296e+05
1.000329999999999941e+01 4.585427860710948589e+05
1.004369999999999941e+01 4.594621675003112177e+05
1.008399999999999963e+01 4.601830717840706930e+05
1.012429999999999986e+01 4.602574759067515843e+05
1.016469999999999985e+01 4.594577731812444399e+05
1.020500000000000007e+01 4.579275656028789235e+05
1.024540000000000006e+01 4.558895521562499925e+05
1.028570000000000029e+01 4.539231797787027317e+05
1.032600000000000051e+01 4.527471968949385337e+05
1.036640000000000050e+01 4.522900967013609479e+05
1.040670000000000073e+01 4.523139681820395635e+05
1.044699999999999918e+01 4.525126764492439106e+05
1.048739999999999917e+01 4.526820129220968229e+05
1.052769999999999939e+01 4.529095666917656781e+05
1.056799999999999962e+01 4.526645008633867837e+05
1.060839999999999961e+01 4.511326023461361765e+05
1.064869999999999983e+01 4.480373322583992849e+05
1.068909999999999982e+01 4.438374880808277521e+05
1.072940000000000005e+01 4.398441212119262782e+05
1.076970000000000027e+01 4.371410872024715063e+05
1.081010000000000026e+01 4.356277354600050021e+05
1.085040000000000049e+01 4.346367128824416432e+05
1.089070000000000071e+01 4.336258148939907551e+05
1.093110000000000070e+01 4.326110443387133419e+05
1.097139999999999915e+01 4.320974352161027491e+05
1.101169999999999938e+01 4.321791041668492835e+05
1.105209999999999937e+01 4.325458808991033002e+05
1.109239999999999959e+01 4.326139944663941860e+05
1.113269999999999982e+01 4.322268634310644702e+05
1.117309999999999981e+01 4.317847595532354899e+05
1.121340000000000003e+01 4.314223859057216323e+05
1.125380000000000003e+01 4.308249041164884693e+05
1.129410000000000025e+01 4.302123665203908458e+05
1.133440000000000047e+01 4.300184330823483178e+05
1.137480000000000047e+01 4.302708965252534836e+05
1.141510000000000069e+01 4.307082549349504407e+05
1.145539999999999914e+01 4.314117361632087850e+05
1.149579999999999913e+01 4.325448747914604610e+05
1.153609999999999935e+01 4.341573068239713903e+05
1.157639999999999958e+01 4.362034754104787135e+05
1.161679999999999957e+01 4.385590266092176898e+05
1.165709999999999980e+01 4.413341440866334597e+05
1.169749999999999979e+01 4.443819374871369801e+05
1.173780000000000001e+01 4.478632727786736796e+05
1.177810000000000024e+01 4.521594476592590800e+05
1.181850000000000023e+01 4.565526592112815124e+05
1.185880000000000045e+01 4.600381913884376409e+05
1.189910000000000068e+01 4.622267354879621998e+05
1.193950000000000067e+01 4.635517776672822656e+05
1.197979999999999912e+01 4.648310605321401963e+05
1.202009999999999934e+01 4.665421846662572352e+05
1.206049999999999933e+01 4.688462794472913374e+05
1.210079999999999956e+01 4.714236479479038389e+05
1.214109999999999978e+01 4.740264479588516988e+05
1.218149999999999977e+01 4.765916784972041496e+05
1.222180000000000000e+01 4.789926543340014759e+05
1.226219999999999999e+01 4.812066580075835227e+05
1.230250000000000021e+01 4.833210233212237363e+05
1.234280000000000044e+01 4.852362542305203970e+05
1.238320000000000043e+01 4.867686837627968634e+05
1.242350000000000065e+01 4.879984569819172611e+05
1.246380000000000088e+01 4.891457863672621315e+05
1.250420000000000087e+01 4.907251934351680102e+05
1.254449999999999932e+01 4.929415684360722080e+05
1.258479999999999954e+01 4.955003897001058212e+05
1.262519999999999953e+01 4.980420163301886641e+05
1.266549999999999976e+01 5.006182029231113265e+05
1.270589999999999975e+01 5.039747495756874559e+05
1.274619999999999997e+01 5.087123891728752642e+05
1.278650000000000020e+01 5.149921896885559545e+05
1.282690000000000019e+01 5.218014392749320832e+05
1.286720000000000041e+01 5.279958112338461215e+05
1.290750000000000064e+01 5.328191264590900391e+05
1.294790000000000063e+01 5.358578796581542119e+05
1.298820000000000086e+01 5.376968520587350940e+05
1.302849999999999930e+01 5.395962670515603386e+05
1.306889999999999930e+01 5.419826127346480498e+05
1.310919999999999952e+01 5.443586131720809499e+05
1.314959999999999951e+01 5.456832259398085298e+05
1.318989999999999974e+01 5.453582364396469202e+05
1.323019999999999996e+01 5.437731026342858095e+05
1.327059999999999995e+01 5.417984834270420251e+05
1.331090000000000018e+01 5.400751995275005465e+05
1.335120000000000040e+01 5.382204041131041013e+05
1.339160000000000039e+01 5.361330362590444274e+05
1.343190000000000062e+01 5.344696253748623421e+05
1.347220000000000084e+01 5.331525353330059443e+05
1.351260000000000083e+01 5.320951012743319152e+05
1.355289999999999928e+01 5.309135676076946547e+05
1.359319999999999951e+01 5.283971040718458826e+05
1.363359999999999950e+01 5.245594103613753105e+05
1.367389999999999972e+01 5.204506268067537458e+05
1.371429999999999971e+01 5.167606669319364592e+05
1.375459999999999994e+01 5.137632643284525839e+05
1.379490000000000016e+01 5.119468583346554660e+05
1.383530000000000015e+01 5.113966508434329880e+05
1.387560000000000038e+01 5.116261456284499145e+05
1.391590000000000060e+01 5.124747844763197936e+05
1.395630000000000059e+01 5.138725689456711407e+05
1.399660000000000082e+01 5.156530041159373941e+05
1.403689999999999927e+01 5.174008793768232572e+05
1.407729999999999926e+01 5.188820496823543217e+05
1.411759999999999948e+01 5.201106548859983450e+05
1.415799999999999947e+01 5.214194132119594724e+05
1.419829999999999970e+01 5.232122859439206077e+05
1.423859999999999992e+01 5.255323949694733601e+05
1.427899999999999991e+01 5.276207570075339172e+05
1.431930000000000014e+01 5.284088482022117823e+05
1.435960000000000036e+01 5.279885583980588708e+05
1.440000000000000036e+01 5.264187897509194445e+05
1.444030000000000058e+01 5.233248855852445704e+05
1.448060000000000080e+01 5.187776893363533891e+05
1.452100000000000080e+01 5.133579925614735694e+05
1.456129999999999924e+01 5.073882494394551031e+05
1.460159999999999947e+01 5.007481610684578191e+05
1.464199999999999946e+01 4.933312281049972516e+05
1.468229999999999968e+01 4.857060628428218770e+05
1.472269999999999968e+01 4.786883118799782242e+05
1.476299999999999990e+01 4.725160262500859681e+05
1.480330000000000013e+01 4.666054183851481648e+05
1.484370000000000012e+01 4.601053601948122960e+05
1.488400000000000034e+01 4.533002822111121495e+05
1.492430000000000057e+01 4.467525721100403462e+05
1.496470000000000056e+01 4.407672085129870684e+05
1.500500000000000078e+01 4.352925451937759062e+05
1.504529999999999923e+01 4.302366037878615316e+05
1.508569999999999922e+01 4.257540637936011772e+05
1.512599999999999945e+01 4.220847914671147009e+05
1.516639999999999944e+01 4.194396465967429685e+05
1.520669999999999966e+01 4.176099066621201346e+05
1.524699999999999989e+01 4.160706159514524043e+05
1.528739999999999988e+01 4.143742005987343728e+05
1.532770000000000010e+01 4.129269305834230618e+05
1.536800000000000033e+01 4.121779809934870573e+05
1.540840000000000032e+01 4.119292633733218536e+05
1.544870000000000054e+01 4.118164470124434447e+05
1.548900000000000077e+01 4.115637342895074980e+05
1.552940000000000076e+01 4.110412172256769263e+05
1.556969999999999921e+01 4.106170493669107673e+05
1.560999999999999943e+01 4.108313521522131050e+05
1.565039999999999942e+01 4.118905164209403447e+05
1.569069999999999965e+01 4.134632789263292798e+05
1.573109999999999964e+01 4.149661389244100428e+05
1.577139999999999986e+01 4.163458730992879136e+05
1.581170000000000009e+01 4.174588291702474817e+05
1.585210000000000008e+01 4.180082127366851782e+05
1.589240000000000030e+01 4.177269058483450208e+05
1.593270000000000053e+01 4.164807450659236056e+05
1.597310000000000052e+01 4.149625202381993295e+05
1.601340000000000074e+01 4.139029027036617626e+05
1.605369999999999919e+01 4.135246192694024649e+05
