# energy(eV) alpha
0.000000000000000000e+00 0.000000000000000000e+00
4.189999999999999974e-02 2.619975062702294410e-01
8.390000000000000235e-02 7.869154814426786437e-01
1.257999999999999952e-01 1.966444730091882587e+00
1.676999999999999880e-01 3.320299231145468877e+00
2.096999999999999975e-01 5.244120823088686656e+00
2.515999999999999903e-01 7.602284364349786827e+00
2.934999999999999831e-01 1.039642313444451638e+01
3.355000000000000204e-01 1.363053047745904145e+01
3.774000000000000132e-01 1.729659642433147937e+01
4.193000000000000060e-01 2.139821203337736577e+01
4.612999999999999878e-01 2.545982073103366616e+01
5.031999999999999806e-01 3.091187858103606700e+01
5.451000000000000290e-01 3.631762335303780276e+01
5.870999999999999552e-01 4.155327853015955952e+01
6.290000000000000036e-01 4.778351833017406136e+01
6.709000000000000519e-01 5.514442436483080456e+01
7.128999999999999782e-01 6.155028751835752132e+01
7.548000000000000265e-01 6.986287942455912514e+01
7.966999999999999638e-01 7.786562285545143425e+01
8.387000000000000011e-01 8.630829165512740531e+01
8.806000000000000494e-01 9.517105292033984654e+01
9.224999999999999867e-01 1.044629979410475329e+02
9.645000000000000240e-01 1.141952532386023478e+02
1.006399999999999961e+00 1.253896060990031884e+02
1.048399999999999999e+00 1.371087162396931660e+02
1.090300000000000047e+00 1.481972080587404719e+02
1.132200000000000095e+00 1.585355821605010647e+02
1.174199999999999910e+00 1.716614547105302790e+02
1.216099999999999959e+00 1.852826079701927142e+02
1.258000000000000007e+00 1.994094645368894589e+02
1.300000000000000044e+00 2.140608543077031527e+02
1.341900000000000093e+00 2.292007033513451120e+02
1.383799999999999919e+00 2.434130711183199196e+02
1.425799999999999956e+00 2.595375349056783989e+02
1.467700000000000005e+00 2.761413504824649863e+02
1.509600000000000053e+00 2.932471840628494988e+02
1.551600000000000090e+00 3.108701693849752132e+02
1.593499999999999917e+00 3.289691361482842922e+02
1.635399999999999965e+00 3.475639131170076439e+02
1.677400000000000002e+00 3.666749028492320122e+02
1.719300000000000050e+00 3.880221032587302830e+02
1.761200000000000099e+00 4.099467013170330461e+02
1.803199999999999914e+00 4.324686248043792034e+02
1.845099999999999962e+00 4.536351168574942676e+02
1.887000000000000011e+00 4.772239308583043567e+02
1.929000000000000048e+00 4.994208156892639749e+02
1.970900000000000096e+00 5.261240499577085075e+02
2.012799999999999923e+00 5.513983596283208044e+02
2.054800000000000182e+00 5.772609009540436773e+02
2.096699999999999786e+00 6.057986333874179081e+02
2.138599999999999834e+00 6.327774024342176062e+02
2.180600000000000094e+00 6.625660552438725972e+02
2.222500000000000142e+00 6.929534175506252041e+02
2.264400000000000190e+00 7.239616296917610043e+02
2.306400000000000006e+00 7.556244073964752488e+02
2.348300000000000054e+00 7.878786543063708905e+02
2.390200000000000102e+00 8.231692145953506952e+02
2.432199999999999918e+00 8.591980069893626251e+02
2.474099999999999966e+00 8.958712360909818244e+02
2.516000000000000014e+00 9.332183659596609004e+02
2.557999999999999829e+00 9.712898462247659381e+02
2.599899999999999878e+00 1.009995320748274935e+03
2.641799999999999926e+00 1.052037984025514334e+03
2.683800000000000185e+00 1.094868976548998717e+03
2.725699999999999790e+00 1.135633353048156323e+03
2.767599999999999838e+00 1.185429971567010398e+03
2.809600000000000097e+00 1.230482495679634667e+03
2.851500000000000146e+00 1.279101261630748468e+03
2.893499999999999961e+00 1.328527755113603462e+03
2.935400000000000009e+00 1.378702731696586852e+03
2.977300000000000058e+00 1.432631517637503293e+03
3.019299999999999873e+00 1.487450423398339353e+03
3.061199999999999921e+00 1.546140406798821459e+03
3.103099999999999969e+00 1.605714920904798873e+03
3.145099999999999785e+00 1.666236269120661973e+03
3.186999999999999833e+00 1.730762937958362045e+03
3.228899999999999881e+00 1.799449849709082173e+03
3.270900000000000141e+00 1.865943274831052349e+03
3.312800000000000189e+00 1.936595315628443359e+03
3.354699999999999793e+00 2.008231740119868618e+03
3.396700000000000053e+00 2.087625126803095100e+03
3.438600000000000101e+00 2.164650087738440106e+03
3.480500000000000149e+00 2.246123624505358748e+03
3.522499999999999964e+00 2.328730968556997141e+03
3.564400000000000013e+00 2.422847882242507239e+03
3.606300000000000061e+00 2.514655299833805202e+03
3.648299999999999876e+00 2.611280040583960727e+03
3.690199999999999925e+00 2.712639503372965919e+03
3.732099999999999973e+00 2.815236306194614826e+03
3.774099999999999788e+00 2.922813090874336922e+03
3.815999999999999837e+00 3.039001250107184205e+03
3.857899999999999885e+00 3.160284118495098483e+03
3.899900000000000144e+00 3.286873189673071465e+03
3.941800000000000193e+00 3.418585227605479304e+03
3.983699999999999797e+00 3.555605790882153087e+03
4.025699999999999612e+00 3.701957619897003951e+03
4.067599999999999660e+00 3.857596565300561906e+03
4.109499999999999709e+00 4.022741079107550377e+03
4.151500000000000412e+00 4.189701012851329324e+03
4.193399999999999572e+00 4.374202340810672467e+03
4.235299999999999621e+00 4.568600050146142166e+03
4.277300000000000324e+00 4.768986779573389867e+03
4.319200000000000372e+00 4.991559605950647892e+03
4.361100000000000421e+00 5.228510078070031341e+03
4.403100000000000236e+00 5.480083144663103667e+03
4.445000000000000284e+00 5.754529815744776897e+03
4.486900000000000333e+00 6.056424310051333123e+03
4.528900000000000148e+00 6.377700919072071883e+03
4.570800000000000196e+00 6.739487565218905729e+03
4.612700000000000244e+00 7.142290069524749924e+03
4.654700000000000060e+00 7.586686569449159833e+03
4.696600000000000108e+00 8.102877548533268964e+03
4.738599999999999923e+00 8.700388403905893938e+03
4.780499999999999972e+00 9.410046157840995875e+03
4.822400000000000020e+00 1.027660028036659241e+04
4.864399999999999835e+00 1.136749161084175103e+04
4.906299999999999883e+00 1.279011769865559108e+04
4.948199999999999932e+00 1.467730826860517845e+04
4.990199999999999747e+00 1.703060580495068280e+04
5.032099999999999795e+00 1.989773164337722119e+04
5.073999999999999844e+00 2.354867820104053681e+04
5.115999999999999659e+00 2.769665398146071311e+04
5.157899999999999707e+00 3.186625026396432440e+04
5.199799999999999756e+00 3.636665559841695358e+04
5.241799999999999571e+00 4.096672784803863033e+04
5.283699999999999619e+00 4.483948403276724275e+04
5.325599999999999667e+00 4.808014152350380755e+04
5.367600000000000371e+00 5.099228493011694081e+04
5.409500000000000419e+00 5.378514831418084214e+04
5.451399999999999579e+00 5.725972283747007168e+04
5.493400000000000283e+00 6.190573033922297327e+04
5.535300000000000331e+00 6.782131309709238121e+04
5.577200000000000379e+00 7.466183706603643077e+04
5.619200000000000195e+00 8.142257971382726100e+04
5.661100000000000243e+00 8.635032925252451969e+04
5.703000000000000291e+00 8.897831016178509162e+04
5.745000000000000107e+00 9.000619242789869895e+04
5.786900000000000155e+00 9.040773292213093373e+04
5.828800000000000203e+00 9.181124958167514706e+04
5.870800000000000018e+00 9.583099268036619469e+04
5.912700000000000067e+00 1.025610394311044220e+05
5.954600000000000115e+00 1.105169778027006541e+05
5.996599999999999930e+00 1.177515632185340510e+05
6.038499999999999979e+00 1.233837510875120061e+05
6.080400000000000027e+00 1.269808677867484657e+05
6.122399999999999842e+00 1.292319028870994662e+05
6.164299999999999891e+00 1.321804328175569535e+05
6.206199999999999939e+00 1.377927477362995269e+05
6.248199999999999754e+00 1.469955264835566340e+05
6.290099999999999802e+00 1.593528671552432061e+05
6.331999999999999851e+00 1.739365635320463334e+05
6.373999999999999666e+00 1.903613822429332358e+05
6.415899999999999714e+00 2.095154322096507822e+05
6.457799999999999763e+00 2.338464894792015257e+05
6.499799999999999578e+00 2.646738557623415836e+05
6.541699999999999626e+00 3.006103817301891977e+05
6.583599999999999675e+00 3.380222974768229178e+05
6.625600000000000378e+00 3.721453187336415285e+05
6.667500000000000426e+00 4.000394489765562466e+05
6.709500000000000242e+00 4.216605880782810273e+05
6.751400000000000290e+00 4.387088979461384006e+05
6.793300000000000338e+00 4.545257149141366826e+05
6.835300000000000153e+00 4.710211238719059620e+05
6.877200000000000202e+00 4.873173765976533177e+05
6.919100000000000250e+00 5.029599783364916220e+05
6.961100000000000065e+00 5.176688770836450858e+05
7.003000000000000114e+00 5.311974326154440641e+05
7.044900000000000162e+00 5.442876441941169323e+05
7.086899999999999977e+00 5.573123289540613769e+05
7.128800000000000026e+00 5.689236651607187232e+05
7.170700000000000074e+00 5.773726680089612491e+05
7.212699999999999889e+00 5.833108075041227276e+05
7.254599999999999937e+00 5.883273429142576642e+05
7.296499999999999986e+00 5.929476809531889157e+05
7.338499999999999801e+00 5.965670365776518593e+05
7.380399999999999849e+00 5.988827317445592489e+05
7.422299999999999898e+00 6.016433465490783565e+05
7.464299999999999713e+00 6.064016509439959191e+05
7.506199999999999761e+00 6.137565656084964285e+05
7.548099999999999810e+00 6.243140567480917089e+05
7.590099999999999625e+00 6.365762055489214836e+05
7.631999999999999673e+00 6.477973773813932203e+05
7.673899999999999721e+00 6.552061567160084378e+05
7.715900000000000425e+00 6.584224551718638977e+05
7.757799999999999585e+00 6.596478472096666228e+05
7.799699999999999633e+00 6.610940068077946780e+05
7.841700000000000337e+00 6.645896190486089326e+05
7.883600000000000385e+00 6.709784461402400630e+05
7.925500000000000433e+00 6.797405786199187860e+05
7.967500000000000249e+00 6.881674032356312964e+05
8.009399999999999409e+00 6.930369540927319322e+05
8.051299999999999457e+00 6.942575236256793141e+05
8.093299999999999272e+00 6.931627415356175043e+05
8.135199999999999321e+00 6.914794994397620903e+05
8.177099999999999369e+00 6.899994407460510265e+05
8.219099999999999184e+00 6.884462592311827466e+05
8.260999999999999233e+00 6.870099839814081788e+05
8.302899999999999281e+00 6.861886527949316660e+05
8.344900000000000873e+00 6.853542992438448127e+05
8.386799999999999145e+00 6.836115125646039378e+05
8.428699999999999193e+00 6.805010091244817013e+05
8.470700000000000784e+00 6.767061005665771663e+05
8.512600000000000833e+00 6.742207158616208471e+05
8.554600000000000648e+00 6.758362634232663549e+05
8.596500000000000696e+00 6.835463564120786032e+05
8.638400000000000745e+00 6.973817345470658038e+05
8.680400000000000560e+00 7.163492376304116333e+05
8.722300000000000608e+00 7.381032745508799562e+05
8.764200000000000657e+00 7.568896693277804879e+05
8.806200000000000472e+00 7.694778266607573023e+05
8.848100000000000520e+00 7.796952038450448308e+05
8.890000000000000568e+00 7.921089559906054055e+05
8.932000000000000384e+00 8.059025605359006440e+05
8.973900000000000432e+00 8.186677523324050708e+05
9.015800000000000480e+00 8.299726509626866318e+05
9.057800000000000296e+00 8.407729612458255142e+05
9.099700000000000344e+00 8.514458478704107692e+05
9.141600000000000392e+00 8.618098344542989507e+05
9.183600000000000207e+00 8.709598893960262649e+05
9.225500000000000256e+00 8.782723135078859050e+05
9.267400000000000304e+00 8.856822695640121819e+05
9.309400000000000119e+00 8.950798732109963894e+05
9.351300000000000168e+00 9.062901405185170006e+05
9.393200000000000216e+00 9.174568436606387841e+05
9.435200000000000031e+00 9.243254055306070950e+05
9.477100000000000080e+00 9.240054621967489365e+05
9.519000000000000128e+00 9.174762360156635987e+05
9.560999999999999943e+00 9.070753667501531309e+05
9.602899999999999991e+00 8.949892804776120465e+05
9.644800000000000040e+00 8.828853621416712413e+05
9.686799999999999855e+00 8.709559693211209960e+05
9.728699999999999903e+00 8.589380073364293203e+05
9.770599999999999952e+00 8.477816721469170880e+05
9.812599999999999767e+00 8.392957234558518976e+05
9.854499999999999815e+00 8.338547766459297854e+05
9.896399999999999864e+00 8.315014891511398600e+05
9.938399999999999679e+00 8.323283858730372740e+05
9.980299999999999727e+00 8.355315255364262266e+05
1.002219999999999978e+01 8.403850742544509703e+05
1.006419999999999959e+01 8.457857646154297981e+05
1.010609999999999964e+01 8.502538287339692470e+05
1.014799999999999969e+01 8.535866955848272191e+05
1.018999999999999950e+01 8.558054681544970954e+05
1.023189999999999955e+01 8.562457668891163776e+05
1.027379999999999960e+01 8.554176220366150374e+05
1.031579999999999941e+01 8.545302042401465587e+05
1.035769999999999946e+01 8.536900650275358930e+05
1.039959999999999951e+01 8.518185329214613885e+05
1.044159999999999933e+01 8.479417820796634769e+05
1.048349999999999937e+01 8.422823941969822627e+05
1.052549999999999919e+01 8.358193131666996051e+05
1.056739999999999924e+01 8.305636688112716656e+05
1.060929999999999929e+01 8.271949767462350428e+05
1.065130000000000088e+01 8.241720406820470234e+05
1.069319999999999915e+01 8.210565454684279393e+05
1.073509999999999920e+01 8.176661618711460615e+05
1.077710000000000079e+01 8.134928122076581931e+05
1.081900000000000084e+01 8.093159950372388121e+05
1.086090000000000089e+01 8.058072373407667037e+05
1.090290000000000070e+01 8.023473509192260681e+05
1.094480000000000075e+01 7.983741530788817909e+05
1.098670000000000080e+01 7.942927572801453061e+05
1.102870000000000061e+01 7.913861504958928563e+05
1.107060000000000066e+01 7.896183624094332336e+05
1.111250000000000071e+01 7.871361875537574524e+05
1.115450000000000053e+01 7.828150463226019638e+05
1.119640000000000057e+01 7.783836045211787568e+05
1.123830000000000062e+01 7.750664903235333040e+05
1.128030000000000044e+01 7.722664973960606148e+05
1.132220000000000049e+01 7.701833828055995982e+05
1.136410000000000053e+01 7.685432987505835481e+05
1.140610000000000035e+01 7.663225974333757767e+05
1.144800000000000040e+01 7.640862751968575176e+05
1.148990000000000045e+01 7.630491059591720114e+05
1.153190000000000026e+01 7.644106757483202964e+05
1.157380000000000031e+01 7.678394995936433552e+05
1.161570000000000036e+01 7.708867321651895763e+05
1.165770000000000017e+01 7.716476768505623331e+05
1.169960000000000022e+01 7.707782922088641208e+05
1.174150000000000027e+01 7.689549735249251826e+05
1.178350000000000009e+01 7.659423635862638475e+05
1.182540000000000013e+01 7.623352281557691749e+05
1.186730000000000018e+01 7.587140295860054903e+05
1.190930000000000000e+01 7.557382199477993418e+05
1.195120000000000005e+01 7.539284359222827479e+05
1.199310000000000009e+01 7.542106922405865043e+05
1.203509999999999991e+01 7.567886582080472726e+05
1.207699999999999996e+01 7.610247543802742148e+05
1.211890000000000001e+01 7.655813006726929452e+05
1.216089999999999982e+01 7.699262182676993543e+05
1.220279999999999987e+01 7.747142282676899340e+05
1.224469999999999992e+01 7.800028716799301328e+05
1.228669999999999973e+01 7.852043605881244875e+05
1.232859999999999978e+01 7.889716137356517138e+05
1.237059999999999960e+01 7.905820099566638237e+05
1.241249999999999964e+01 7.912012198997768573e+05
1.245439999999999969e+01 7.923213047889029840e+05
1.249639999999999951e+01 7.946115234542971011e+05
1.253829999999999956e+01 7.978221616961805848e+05
1.258019999999999960e+01 8.010920922947217477e+05
1.262219999999999942e+01 8.050609406113675795e+05
1.266409999999999947e+01 8.106102268697030377e+05
1.270599999999999952e+01 8.180710525205620797e+05
1.274799999999999933e+01 8.263820331911084941e+05
1.278989999999999938e+01 8.340749058673279360e+05
1.283179999999999943e+01 8.410470614684685133e+05
1.287379999999999924e+01 8.484985358348912559e+05
1.291569999999999929e+01 8.570226994805551367e+05
1.295759999999999934e+01 8.658465965918931179e+05
1.299959999999999916e+01 8.734680136143214768e+05
1.304149999999999920e+01 8.797615173049970763e+05
1.308339999999999925e+01 8.854468454484902322e+05
1.312540000000000084e+01 8.917036246783027891e+05
1.316729999999999912e+01 8.985836375443447614e+05
1.320919999999999916e+01 9.046603066334757023e+05
1.325120000000000076e+01 9.091744132524528541e+05
1.329310000000000080e+01 9.125669341529799858e+05
1.333500000000000085e+01 9.158172849382959539e+05
1.337700000000000067e+01 9.195793811177663738e+05
1.341890000000000072e+01 9.240718143225229578e+05
1.346080000000000076e+01 9.287813844474942889e+05
1.350280000000000058e+01 9.326759877874396043e+05
1.354470000000000063e+01 9.347836243962874869e+05
1.358660000000000068e+01 9.363325147751877084e+05
1.362860000000000049e+01 9.379841440049580997e+05
1.367050000000000054e+01 9.397884659745504614e+05
1.371240000000000059e+01 9.421262920516745653e+05
1.375440000000000040e+01 9.453657175612070132e+05
1.379630000000000045e+01 9.496736201320454711e+05
1.383820000000000050e+01 9.541124193262960762e+05
1.388020000000000032e+01 9.577266341354027390e+05
1.392210000000000036e+01 9.596652274757421110e+05
1.396400000000000041e+01 9.592140953112015268e+05
1.400600000000000023e+01 9.569824464547196403e+05
1.404790000000000028e+01 9.547157828316215891e+05
1.408980000000000032e+01 9.547354373039321508e+05
1.413180000000000014e+01 9.585013904357212596e+05
1.417370000000000019e+01 9.652061092788684182e+05
1.421570000000000000e+01 9.736337653264513938e+05
1.425760000000000005e+01 9.817119225251511671e+05
1.429950000000000010e+01 9.882009617695771158e+05
1.434149999999999991e+01 9.932740008243558696e+05
1.438339999999999996e+01 9.980697081660293043e+05
1.442530000000000001e+01 1.002875274538369034e+06
1.446729999999999983e+01 1.006664278270970681e+06
1.450919999999999987e+01 1.008639743964511901e+06
1.455109999999999992e+01 1.008621231951831374e+06
1.459309999999999974e+01 1.007979210988966632e+06
1.463499999999999979e+01 1.007806496616482153e+06
1.467689999999999984e+01 1.007252177861229400e+06
1.471889999999999965e+01 1.005617658430924290e+06
1.476079999999999970e+01 1.003474908016751637e+06
1.480269999999999975e+01 1.001067156351331621e+06
1.484469999999999956e+01 9.991844430770876352e+05
1.488659999999999961e+01 9.979012467753099045e+05
1.492849999999999966e+01 9.958886051271931501e+05
1.497049999999999947e+01 9.927061055789415259e+05
1.501239999999999952e+01 9.889981352582958061e+05
1.505429999999999957e+01 9.846687991918143816e+05
1.509629999999999939e+01 9.795862735715867020e+05
1.513819999999999943e+01 9.741741505266234744e+05
1.518009999999999948e+01 9.695304348171757301e+05
1.522209999999999930e+01 9.655285733722321456e+05
1.526399999999999935e+01 9.607804685389579972e+05
1.530589999999999939e+01 9.548765953206343111e+05
1.534789999999999921e+01 9.484805236673245672e+05
1.538979999999999926e+01 9.422646700045260368e+05
1.543169999999999931e+01 9.355062301103872014e+05
1.547369999999999912e+01 9.281720402552749729e+05
1.551559999999999917e+01 9.203688588228848530e+05
1.555749999999999922e+01 9.125924570722116623e+05
1.559950000000000081e+01 9.056735881847029086e+05
1.564140000000000086e+01 8.984744679714161903e+05
1.568329999999999913e+01 8.904186255839028163e+05
1.572530000000000072e+01 8.821262231631142786e+05
1.576720000000000077e+01 8.743090551094082184e+05
1.580910000000000082e+01 8.668162817946766736e+05
1.585110000000000063e+01 8.602091176470739301e+05
1.589300000000000068e+01 8.557331862639689352e+05
1.593490000000000073e+01 8.529559048377944855e+05
1.597690000000000055e+01 8.500135745541048236e+05
1.601879999999999882e+01 8.457416185850447509e+05
1.606070000000000064e+01 8.421826607015827904e+05
1.610269999999999868e+01 8.416784191540194442e+05
1.614460000000000051e+01 8.434735987843688345e+05
1.618659999999999854e+01 8.460691236036316259e+05
1.622850000000000037e+01 8.491927402616477339e+05
1.627039999999999864e+01 8.539505365994363092e+05
1.631240000000000023e+01 8.604966617350580636e+05
1.635429999999999851e+01 8.681551767170026433e+05
1.639620000000000033e+01 8.754771113895339658e+05
1.643819999999999837e+01 8.816786691493174294e+05
1.648010000000000019e+01 8.867059829497492174e+05
1.652199999999999847e+01 8.909084875892832642e+05
1.656400000000000006e+01 8.953499028654607246e+05
1.660589999999999833e+01 8.999782202363787219e+05
1.664780000000000015e+01 9.040225335403715726e+05
1.668980000000000175e+01 9.078008510640007444e+05
