# energy(eV) alpha
0.000000000000000000e+00 0.000000000000000000e+00
4.200000000000000261e-02 6.328192126868892320e-01
8.400000000000000522e-02 2.456714798456959947e+00
1.260000000000000009e-01 5.583007241820157063e+00
1.680999999999999994e-01 9.681906841859939661e+00
2.101000000000000090e-01 1.544970670983481220e+01
2.520999999999999908e-01 2.210795007291165604e+01
2.940999999999999726e-01 2.995323521013326840e+01
3.361000000000000099e-01 3.957907003704938376e+01
3.780999999999999917e-01 5.020258189108503899e+01
4.200999999999999734e-01 6.208234268142265933e+01
4.621000000000000107e-01 7.480644904645056670e+01
5.041999999999999815e-01 8.961694329197489139e+01
5.462000000000000188e-01 1.052506793748181622e+02
5.881999999999999451e-01 1.226494219726203170e+02
6.301999999999999824e-01 1.413633066809111085e+02
6.722000000000000197e-01 1.607958486761782240e+02
7.141999999999999460e-01 1.827223810873559557e+02
7.561999999999999833e-01 2.053603416086207005e+02
7.983000000000000096e-01 2.293236154205435469e+02
8.403000000000000469e-01 2.560341627015256449e+02
8.822999999999999732e-01 2.826273118371853457e+02
9.243000000000000105e-01 3.129391630784233485e+02
9.663000000000000478e-01 3.430489407669427351e+02
1.008299999999999974e+00 3.745020581178121120e+02
1.050300000000000011e+00 4.091331688732694829e+02
1.092300000000000049e+00 4.442787973671660779e+02
1.134400000000000075e+00 4.828481157531542181e+02
1.176399999999999890e+00 5.218728214111744137e+02
1.218399999999999928e+00 5.644771355523829470e+02
1.260399999999999965e+00 6.064556150545055289e+02
1.302400000000000002e+00 6.532794381412680877e+02
1.344400000000000039e+00 7.005515107963292394e+02
1.386400000000000077e+00 7.505761597852707609e+02
1.428500000000000103e+00 8.035069939884753012e+02
1.470499999999999918e+00 8.593233160196185736e+02
1.512499999999999956e+00 9.142318262803812559e+02
1.554499999999999993e+00 9.747417484187643595e+02
1.596500000000000030e+00 1.038383639989964877e+03
1.638500000000000068e+00 1.103833815482908221e+03
1.680500000000000105e+00 1.172520116960856285e+03
1.722599999999999909e+00 1.244593811513165065e+03
1.764599999999999946e+00 1.316977641888070593e+03
1.806599999999999984e+00 1.394245529456263512e+03
1.848600000000000021e+00 1.478166715606005937e+03
1.890600000000000058e+00 1.562554240026491698e+03
1.932600000000000096e+00 1.650579279784650907e+03
1.974599999999999911e+00 1.745674976233184452e+03
2.016599999999999948e+00 1.844668191437315954e+03
2.058699999999999974e+00 1.945988288437091569e+03
2.100699999999999790e+00 2.051166290957110959e+03
2.142700000000000049e+00 2.165800993712409763e+03
2.184699999999999864e+00 2.282852117876906505e+03
2.226700000000000124e+00 2.406031125211506151e+03
2.268699999999999939e+00 2.535474425463185071e+03
2.310700000000000198e+00 2.671301771523417756e+03
2.352799999999999780e+00 2.813778958597412839e+03
2.394800000000000040e+00 2.964776892854442849e+03
2.436799999999999855e+00 3.122585386099143307e+03
2.478800000000000114e+00 3.287309207664517089e+03
2.520799999999999930e+00 3.463218722032949699e+03
2.562800000000000189e+00 3.648462629962381925e+03
2.604800000000000004e+00 3.841049273456172614e+03
2.646799999999999820e+00 4.049735062017743985e+03
2.688899999999999846e+00 4.268476507667706755e+03
2.730900000000000105e+00 4.499250612000538240e+03
2.772899999999999920e+00 4.744728382833768592e+03
2.814900000000000180e+00 5.005080944163443746e+03
2.856899999999999995e+00 5.282890190679323496e+03
2.898899999999999810e+00 5.578351532800290443e+03
2.940900000000000070e+00 5.894128666664259072e+03
2.983000000000000096e+00 6.233015098161313290e+03
3.024999999999999911e+00 6.592525569247829480e+03
3.067000000000000171e+00 6.985182874918569723e+03
3.108999999999999986e+00 7.404084359163782210e+03
3.150999999999999801e+00 7.859282210894996751e+03
3.193000000000000060e+00 8.348712915308840820e+03
3.234999999999999876e+00 8.880047976825180740e+03
3.277000000000000135e+00 9.458629151799343163e+03
3.319100000000000161e+00 1.009520450382872150e+04
3.361099999999999977e+00 1.079465031629370242e+04
3.403099999999999792e+00 1.156504838291618762e+04
3.445100000000000051e+00 1.242205967444736416e+04
3.487099999999999866e+00 1.337879954606823958e+04
3.529100000000000126e+00 1.445064423597901987e+04
3.571099999999999941e+00 1.566866659609711132e+04
3.613199999999999967e+00 1.706143207974715187e+04
3.655199999999999783e+00 1.867691995344081079e+04
3.697200000000000042e+00 2.056323869180461043e+04
3.739199999999999857e+00 2.281518244164308271e+04
3.781200000000000117e+00 2.555144236029399690e+04
3.823199999999999932e+00 2.896531720460834185e+04
3.865200000000000191e+00 3.333873669142967992e+04
3.907300000000000217e+00 3.900402233789579623e+04
3.949300000000000033e+00 4.621084848764409981e+04
3.991299999999999848e+00 5.537339482719497028e+04
4.033299999999999663e+00 6.761634547239182575e+04
4.075300000000000367e+00 8.427244291503999557e+04
4.117300000000000182e+00 1.058658348561574530e+05
4.159299999999999997e+00 1.312481699885806884e+05
4.201299999999999812e+00 1.592926533476967306e+05
4.243400000000000283e+00 1.900250595510025159e+05
4.285400000000000098e+00 2.218819967724366579e+05
4.327399999999999913e+00 2.513615403653150424e+05
4.369399999999999729e+00 2.774694473548652604e+05
4.411400000000000432e+00 3.037447685536518111e+05
4.453400000000000247e+00 3.318169338186638779e+05
4.495400000000000063e+00 3.562226148737625335e+05
4.537499999999999645e+00 3.768530698977924185e+05
4.579500000000000348e+00 3.991958838385985000e+05
4.621500000000000163e+00 4.239612969134003506e+05
4.663499999999999979e+00 4.472851188496873365e+05
4.705499999999999794e+00 4.680668673646181123e+05
4.747499999999999609e+00 4.876817393763239961e+05
4.789500000000000313e+00 5.065822549120890326e+05
4.831500000000000128e+00 5.253253599379218649e+05
4.873599999999999710e+00 5.423279469221413601e+05
4.915600000000000414e+00 5.552144898053595098e+05
4.957600000000000229e+00 5.626788400669152616e+05
4.999600000000000044e+00 5.635683483443270670e+05
5.041599999999999859e+00 5.591577823404246010e+05
5.083599999999999675e+00 5.506737343116749544e+05
5.125600000000000378e+00 5.398783569574916037e+05
5.167699999999999960e+00 5.290944478355605388e+05
5.209699999999999775e+00 5.195972568000266911e+05
5.251699999999999591e+00 5.089092704874649644e+05
5.293700000000000294e+00 4.934387945331865340e+05
5.335700000000000109e+00 4.759179242252128315e+05
5.377699999999999925e+00 4.611034644201244228e+05
5.419699999999999740e+00 4.499084592818831443e+05
5.461700000000000443e+00 4.407396798921583104e+05
5.503800000000000026e+00 4.317031787642876152e+05
5.545799999999999841e+00 4.232462925085343886e+05
5.587799999999999656e+00 4.170462533285317477e+05
5.629800000000000360e+00 4.153750449367209221e+05
5.671800000000000175e+00 4.194204487181450822e+05
5.713799999999999990e+00 4.281754795291374903e+05
5.755799999999999805e+00 4.395330063447834691e+05
5.797900000000000276e+00 4.527784589858704130e+05
5.839900000000000091e+00 4.682367217851711321e+05
5.881899999999999906e+00 4.854493359451294527e+05
5.923899999999999721e+00 5.049406991149286623e+05
5.965900000000000425e+00 5.279557342278133146e+05
6.007900000000000240e+00 5.549418798245036742e+05
6.049900000000000055e+00 5.856575973916162038e+05
6.091999999999999638e+00 6.192359594368586550e+05
6.134000000000000341e+00 6.548845306469766656e+05
6.176000000000000156e+00 6.927657285557653522e+05
6.217999999999999972e+00 7.328184165703537874e+05
6.259999999999999787e+00 7.738913086909579579e+05
6.301999999999999602e+00 8.155636420511645265e+05
6.344000000000000306e+00 8.566172996261568042e+05
6.386000000000000121e+00 8.937335544216758572e+05
6.428099999999999703e+00 9.235327412108784774e+05
6.470100000000000406e+00 9.456992668585157953e+05
6.512100000000000222e+00 9.626158233709975611e+05
6.554100000000000037e+00 9.764641923793331953e+05
6.596099999999999852e+00 9.853368898751091911e+05
6.638099999999999667e+00 9.887795553640088765e+05
6.680100000000000371e+00 9.889054032305332366e+05
6.722199999999999953e+00 9.885711047865576111e+05
6.764199999999999768e+00 9.895701961779751582e+05
6.806199999999999584e+00 9.928992791394081432e+05
6.848200000000000287e+00 9.980285000573889120e+05
6.890200000000000102e+00 1.003757643555933493e+06
6.932199999999999918e+00 1.007224849000902264e+06
6.974199999999999733e+00 1.004702904951850884e+06
7.016200000000000436e+00 9.954217378069601255e+05
7.058300000000000018e+00 9.817696027362896129e+05
7.100299999999999834e+00 9.681247307746734004e+05
7.142299999999999649e+00 9.592715060087223537e+05
7.184300000000000352e+00 9.564670675620031543e+05
7.226300000000000168e+00 9.569815841374524171e+05
7.268299999999999983e+00 9.574030953167821281e+05
7.310299999999999798e+00 9.556271986139673973e+05
7.352400000000000269e+00 9.514723683990800055e+05
7.394400000000000084e+00 9.457464914125489304e+05
7.436399999999999899e+00 9.393827550290293293e+05
7.478399999999999714e+00 9.344289632527257781e+05
7.520400000000000418e+00 9.327939452364937169e+05
7.562400000000000233e+00 9.349146490905003157e+05
7.604400000000000048e+00 9.385951238861206220e+05
7.646399999999999864e+00 9.409470525789451785e+05
7.688500000000000334e+00 9.419919891538177617e+05
7.730500000000000149e+00 9.431867719453833997e+05
7.772499999999999964e+00 9.444783507031986956e+05
7.814499999999999780e+00 9.446739177588438615e+05
7.856499999999999595e+00 9.429574514526838902e+05
7.898500000000000298e+00 9.398073461768513080e+05
7.940500000000000114e+00 9.355690907365932362e+05
7.982599999999999696e+00 9.299229623788939789e+05
8.024599999999999511e+00 9.226637206500250613e+05
8.066599999999999326e+00 9.140294780666173901e+05
8.108599999999999142e+00 9.052991578166155377e+05
8.150600000000000733e+00 8.974822593629808398e+05
8.192600000000000549e+00 8.902776901211979566e+05
8.234600000000000364e+00 8.833356394361137645e+05
8.276699999999999946e+00 8.777799692962974077e+05
8.318699999999999761e+00 8.739641958021341125e+05
8.360699999999999577e+00 8.718033909383222926e+05
8.402699999999999392e+00 8.725013134535629069e+05
8.444699999999999207e+00 8.774832861747497227e+05
8.486700000000000799e+00 8.856455142551112222e+05
8.528700000000000614e+00 8.945471239640996791e+05
8.570700000000000429e+00 9.028489037455613725e+05
8.612800000000000011e+00 9.106073985225582728e+05
8.654799999999999827e+00 9.174157262895953609e+05
8.696799999999999642e+00 9.231423845289231976e+05
8.738799999999999457e+00 9.280441485017176019e+05
8.780799999999999272e+00 9.320174094566699350e+05
8.822800000000000864e+00 9.354995980624137446e+05
8.864800000000000679e+00 9.392972748479451984e+05
8.906900000000000261e+00 9.429018935825870140e+05
8.948900000000000077e+00 9.453505911412576679e+05
8.990899999999999892e+00 9.479422239983159816e+05
9.032899999999999707e+00 9.522412372833454283e+05
9.074899999999999523e+00 9.580923097202571807e+05
9.116899999999999338e+00 9.644053649179068161e+05
9.158899999999999153e+00 9.695892233458088012e+05
9.200900000000000745e+00 9.731103241888065822e+05
9.243000000000000327e+00 9.760556467397898668e+05
9.285000000000000142e+00 9.792821024124145042e+05
9.326999999999999957e+00 9.829239645999143831e+05
9.368999999999999773e+00 9.867639273036168888e+05
9.410999999999999588e+00 9.907042702229913557e+05
9.452999999999999403e+00 9.952977459117984399e+05
9.494999999999999218e+00 1.000161281908994075e+06
9.537100000000000577e+00 1.004586085910403985e+06
9.579100000000000392e+00 1.008516888852310600e+06
9.621100000000000207e+00 1.012316791416289634e+06
9.663100000000000023e+00 1.016072850802698871e+06
9.705099999999999838e+00 1.019238668912913185e+06
9.747099999999999653e+00 1.021839753574244911e+06
9.789099999999999469e+00 1.023702104501867900e+06
9.831099999999999284e+00 1.024457971439394983e+06
9.873200000000000642e+00 1.024570477517052437e+06
9.915200000000000458e+00 1.024516670406309073e+06
9.957200000000000273e+00 1.024604622700139298e+06
9.999200000000000088e+00 1.024803475792787736e+06
1.004119999999999990e+01 1.024762855780804646e+06
1.008319999999999972e+01 1.024976641932216007e+06
1.012519999999999953e+01 1.026362931843259023e+06
1.016729999999999912e+01 1.028202093443305348e+06
1.020930000000000071e+01 1.029008003864927567e+06
1.025130000000000052e+01 1.028337540077053010e+06
1.029330000000000034e+01 1.026896440888070501e+06
1.033530000000000015e+01 1.026285924140199553e+06
1.037729999999999997e+01 1.026791071007138584e+06
1.041929999999999978e+01 1.027047542506841593e+06
1.046139999999999937e+01 1.026924378510168870e+06
1.050339999999999918e+01 1.027012761994914035e+06
1.054540000000000077e+01 1.026229174561713240e+06
1.058740000000000059e+01 1.023731122371838428e+06
1.062940000000000040e+01 1.021149242352462374e+06
1.067140000000000022e+01 1.018984832578996662e+06
1.071340000000000003e+01 1.015448087889632676e+06
1.075539999999999985e+01 1.010277104680637131e+06
1.079749999999999943e+01 1.004297777603593306e+06
1.083949999999999925e+01 9.976653443943726597e+05
1.088150000000000084e+01 9.904886036869708914e+05
1.092350000000000065e+01 9.831356352824874921e+05
1.096550000000000047e+01 9.760718143754933262e+05
1.100750000000000028e+01 9.694980217169271782e+05
1.104950000000000010e+01 9.642462425282580080e+05
1.109159999999999968e+01 9.601332239377592923e+05
1.113359999999999950e+01 9.551694561004323186e+05
1.117559999999999931e+01 9.488605369084647391e+05
1.121759999999999913e+01 9.429283358342049178e+05
1.125960000000000072e+01 9.376420890299964231e+05
1.130160000000000053e+01 9.313835301581573440e+05
1.134360000000000035e+01 9.244636562155692372e+05
1.138560000000000016e+01 9.178248844970944338e+05
1.142769999999999975e+01 9.115533731107168132e+05
1.146969999999999956e+01 9.056561319533814676e+05
1.151169999999999938e+01 8.991785823655589484e+05
1.155369999999999919e+01 8.912152232480522944e+05
1.159570000000000078e+01 8.825367352766316617e+05
1.163770000000000060e+01 8.746496279079674277e+05
1.167970000000000041e+01 8.687683257158363704e+05
1.172180000000000000e+01 8.644521938873335021e+05
1.176379999999999981e+01 8.606211067276423564e+05
1.180579999999999963e+01 8.562936022061294643e+05
1.184779999999999944e+01 8.502971449327297742e+05
1.188979999999999926e+01 8.430092860078522936e+05
1.193180000000000085e+01 8.358308946236727061e+05
1.197380000000000067e+01 8.291336613042748068e+05
1.201580000000000048e+01 8.231823342455375241e+05
1.205790000000000006e+01 8.177896285284231417e+05
1.209989999999999988e+01 8.122351361783903558e+05
1.214189999999999969e+01 8.063574147172784433e+05
1.218389999999999951e+01 8.005958085275150370e+05
1.222589999999999932e+01 7.959062937041146215e+05
1.226789999999999914e+01 7.934616135392674478e+05
1.230990000000000073e+01 7.933613430976537056e+05
1.235200000000000031e+01 7.945730413490001811e+05
1.239400000000000013e+01 7.955819272301152814e+05
1.243599999999999994e+01 7.956479513147734106e+05
1.247799999999999976e+01 7.956498119633076712e+05
1.251999999999999957e+01 7.975937293804304209e+05
1.256199999999999939e+01 8.018914490145683521e+05
1.260399999999999920e+01 8.063516012187550077e+05
1.264610000000000056e+01 8.106244725982595701e+05
1.268810000000000038e+01 8.159662055190207902e+05
1.273010000000000019e+01 8.224732135313304607e+05
1.277210000000000001e+01 8.294443537879349897e+05
1.281409999999999982e+01 8.359221343733381946e+05
1.285609999999999964e+01 8.413847037620577030e+05
1.289809999999999945e+01 8.455933122584850062e+05
1.294009999999999927e+01 8.489332540732424241e+05
1.298220000000000063e+01 8.508114619750073180e+05
1.302420000000000044e+01 8.512577113107652403e+05
1.306620000000000026e+01 8.511466530236677499e+05
1.310820000000000007e+01 8.507004957102827029e+05
1.315019999999999989e+01 8.502225007015967276e+05
1.319219999999999970e+01 8.498570112459756201e+05
1.323419999999999952e+01 8.488698408585619181e+05
1.327630000000000088e+01 8.465420364264977397e+05
1.331830000000000069e+01 8.431379829366197810e+05
1.336030000000000051e+01 8.397357489555914653e+05
1.340230000000000032e+01 8.369966695316407131e+05
1.344430000000000014e+01 8.354243383158103097e+05
1.348629999999999995e+01 8.367959694624019321e+05
1.352829999999999977e+01 8.426322035054231528e+05
1.357029999999999959e+01 8.520928148384736851e+05
1.361239999999999917e+01 8.632606277729492867e+05
1.365440000000000076e+01 8.749159501820262522e+05
1.369640000000000057e+01 8.853127806801442057e+05
1.373840000000000039e+01 8.927486874905779259e+05
1.378040000000000020e+01 8.979615435894018738e+05
1.382240000000000002e+01 9.034648143374621868e+05
1.386439999999999984e+01 9.107817266607754864e+05
1.390649999999999942e+01 9.187595320795591688e+05
1.394849999999999923e+01 9.250892113476615632e+05
1.399050000000000082e+01 9.302887672366533661e+05
1.403250000000000064e+01 9.348213868488906883e+05
1.407450000000000045e+01 9.369267320091746515e+05
1.411650000000000027e+01 9.352009814240958076e+05
1.415850000000000009e+01 9.297712129470533691e+05
1.420049999999999990e+01 9.223965846083455253e+05
1.424259999999999948e+01 9.157385084579846589e+05
1.428459999999999930e+01 9.108809455616304185e+05
1.432659999999999911e+01 9.078595833911455702e+05
1.436860000000000070e+01 9.061233803486383986e+05
1.441060000000000052e+01 9.051768682566953357e+05
1.445260000000000034e+01 9.047338993734504329e+05
1.449460000000000015e+01 9.040381256828885525e+05
1.453669999999999973e+01 9.016872636620213743e+05
1.457869999999999955e+01 8.964079080085960450e+05
1.462069999999999936e+01 8.893262326579288347e+05
1.466269999999999918e+01 8.822643995109068928e+05
1.470470000000000077e+01 8.754905334842375014e+05
1.474670000000000059e+01 8.689595560382044641e+05
1.478870000000000040e+01 8.621321058258251287e+05
1.483079999999999998e+01 8.542370203891462879e+05
1.487279999999999980e+01 8.460586746171647683e+05
1.491479999999999961e+01 8.395944513733349741e+05
1.495679999999999943e+01 8.357162687689237064e+05
1.499879999999999924e+01 8.330198933146105846e+05
1.504080000000000084e+01 8.297239483448081883e+05
1.508280000000000065e+01 8.260253767651739763e+05
1.512480000000000047e+01 8.222666201142759528e+05
1.516690000000000005e+01 8.176350799935999094e+05
1.520889999999999986e+01 8.118660342457840452e+05
1.525089999999999968e+01 8.064972843268634751e+05
1.529289999999999949e+01 8.024557337679514894e+05
1.533489999999999931e+01 7.993930245479756268e+05
1.537689999999999912e+01 7.972665363186335890e+05
1.541890000000000072e+01 7.969268395814665128e+05
1.546100000000000030e+01 7.976552463187188841e+05
1.550300000000000011e+01 7.977503789065780584e+05
1.554499999999999993e+01 7.966395404538576258e+05
1.558699999999999974e+01 7.939128439030194422e+05
1.562899999999999956e+01 7.894224665049352916e+05
1.567099999999999937e+01 7.838871215711795958e+05
1.571299999999999919e+01 7.786759931156163802e+05
1.575500000000000078e+01 7.744147336880891817e+05
1.579710000000000036e+01 7.711133417108331341e+05
1.583910000000000018e+01 7.683055114363923203e+05
1.588109999999999999e+01 7.646381184483278776e+05
1.592309999999999981e+01 7.605815027916186955e+05
1.596509999999999962e+01 7.569703779629672645e+05
1.600710000000000122e+01 7.532193158220631303e+05
1.604909999999999926e+01 7.484778651783127571e+05
1.609120000000000061e+01 7.428034980569975451e+05
1.613319999999999865e+01 7.374239058341266355e+05
1.617520000000000024e+01 7.327399258378954837e+05
1.621719999999999828e+01 7.285577807731147623e+05
1.625919999999999987e+01 7.240497685699469876e+05
1.630120000000000147e+01 7.181041740318678785e+05
1.634319999999999951e+01 7.110463916265257867e+05
1.638520000000000110e+01 7.040192600409074221e+05
1.642729999999999890e+01 6.973241084752250463e+05
1.646930000000000049e+01 6.902545404570141109e+05
1.651129999999999853e+01 6.823745329378970200e+05
1.655330000000000013e+01 6.744988461681118933e+05
1.659530000000000172e+01 6.673145886850325624e+05
1.663729999999999976e+01 6.601957986524249427e+05
1.667930000000000135e+01 6.526373880688805366e+05
1.672139999999999915e+01 6.445696553992301924e+05
