# energy(eV) alpha
0.000000000000000000e+00 0.000000000000000000e+00
4.700000000000000011e-02 2.804713462573206195e-01
9.400000000000000022e-02 1.121859456948425482e+00
1.409999999999999865e-01 2.804502812740051088e+00
1.880000000000000004e-01 4.860885475196539574e+00
2.349999999999999867e-01 7.477680644701521828e+00
2.819999999999999729e-01 1.065464885015164676e+01
3.289000000000000257e-01 1.438716893027378418e+01
3.759000000000000119e-01 1.943017901649201207e+01
4.228999999999999981e-01 2.479865762632666559e+01
4.698999999999999844e-01 3.035181173058417059e+01
5.169000000000000261e-01 3.646284513129009497e+01
5.638999999999999568e-01 4.313113292813120836e+01
6.108999999999999986e-01 5.156939044802049210e+01
6.579000000000000403e-01 5.944312986744898097e+01
7.048999999999999710e-01 6.787184054333181393e+01
7.519000000000000128e-01 7.834653929966421515e+01
7.989000000000000545e-01 8.876740152018344077e+01
8.458999999999999853e-01 9.899410087226405608e+01
8.928000000000000380e-01 1.115304161452809240e+02
9.397999999999999687e-01 1.229492587750519448e+02
9.868000000000000105e-01 1.349165892771767687e+02
1.033800000000000052e+00 1.505035370956753979e+02
1.080799999999999983e+00 1.637016393789200777e+02
1.127799999999999914e+00 1.796771360362655230e+02
1.174800000000000066e+00 1.952155474004289886e+02
1.221799999999999997e+00 2.125962088747051553e+02
1.268799999999999928e+00 2.281913124902490040e+02
1.315800000000000081e+00 2.482232092116363162e+02
1.362800000000000011e+00 2.650283967065150819e+02
1.409799999999999942e+00 2.865359475803352325e+02
1.456700000000000106e+00 3.073964708872408096e+02
1.503700000000000037e+00 3.289843466097833016e+02
1.550699999999999967e+00 3.497564911908967815e+02
1.597699999999999898e+00 3.742886260949387065e+02
1.644700000000000051e+00 3.996093206163585023e+02
1.691699999999999982e+00 4.240611495451115047e+02
1.738699999999999912e+00 4.509124406379673928e+02
1.785700000000000065e+00 4.785518396978415012e+02
1.832699999999999996e+00 5.069654051332556151e+02
1.879699999999999926e+00 5.361606712154116394e+02
1.926700000000000079e+00 5.642383709382593224e+02
1.973700000000000010e+00 5.949206363259660293e+02
2.020599999999999952e+00 6.283154974885372894e+02
2.067600000000000104e+00 6.646061022623348435e+02
2.114599999999999813e+00 6.977010782894340082e+02
2.161599999999999966e+00 7.357603294921167389e+02
2.208600000000000119e+00 7.704341205317290360e+02
2.255599999999999827e+00 8.124333256656004778e+02
2.302599999999999980e+00 8.509485710427156846e+02
2.349600000000000133e+00 8.948440433591570127e+02
2.396599999999999842e+00 9.373958102281646916e+02
2.443599999999999994e+00 9.831955134166133803e+02
2.490600000000000147e+00 1.029974891578809093e+03
2.537599999999999856e+00 1.075244358887965518e+03
2.584499999999999797e+00 1.126340462024182898e+03
2.631499999999999950e+00 1.178499079561345752e+03
2.678500000000000103e+00 1.231675352537204390e+03
2.725499999999999812e+00 1.288478003336084157e+03
2.772499999999999964e+00 1.346378946840625758e+03
2.819500000000000117e+00 1.405325253975540136e+03
2.866499999999999826e+00 1.468100364151346184e+03
2.913499999999999979e+00 1.531997154236395318e+03
2.960500000000000131e+00 1.597011975529519304e+03
3.007499999999999840e+00 1.668869376671394093e+03
3.054499999999999993e+00 1.736157764247769137e+03
3.101500000000000146e+00 1.813388748612887412e+03
3.148400000000000087e+00 1.891841388760842619e+03
3.195399999999999796e+00 1.971637629949820166e+03
3.242399999999999949e+00 2.055755096952625991e+03
3.289400000000000102e+00 2.141226624316269408e+03
3.336399999999999810e+00 2.231131674893424588e+03
3.383399999999999963e+00 2.328780636673174740e+03
3.430400000000000116e+00 2.427903742400701049e+03
3.477399999999999824e+00 2.531757547007458470e+03
3.524399999999999977e+00 2.637115599290457340e+03
3.571400000000000130e+00 2.750637731003180306e+03
3.618399999999999839e+00 2.869128704251870204e+03
3.665399999999999991e+00 2.989269793131173628e+03
3.712299999999999933e+00 3.114354920571043294e+03
3.759300000000000086e+00 3.251635212382434929e+03
3.806299999999999795e+00 3.387171343240719125e+03
3.853299999999999947e+00 3.535074927135375219e+03
3.900300000000000100e+00 3.688416030932801732e+03
3.947299999999999809e+00 3.850866499331092200e+03
3.994299999999999962e+00 4.018902209424819830e+03
4.041299999999999670e+00 4.196250385017521694e+03
4.088300000000000267e+00 4.383077426578603081e+03
4.135299999999999976e+00 4.583243849543787292e+03
4.182299999999999685e+00 4.793159549891202914e+03
4.229300000000000281e+00 5.016676605039857350e+03
4.276200000000000223e+00 5.246204485383616884e+03
4.323199999999999932e+00 5.497520190595425447e+03
4.370199999999999640e+00 5.762924735947141016e+03
4.417200000000000237e+00 6.050497001170790099e+03
4.464199999999999946e+00 6.352461028225809969e+03
4.511199999999999655e+00 6.668965282339390797e+03
4.558200000000000252e+00 7.020172916801923748e+03
4.605199999999999960e+00 7.386185050088641219e+03
4.652199999999999669e+00 7.787320306675604115e+03
4.699200000000000266e+00 8.219862998212915045e+03
4.746199999999999974e+00 8.687993648185696657e+03
4.793199999999999683e+00 9.200179110722801852e+03
4.840099999999999625e+00 9.760492511954284055e+03
4.887100000000000222e+00 1.038205201654329176e+04
4.934099999999999930e+00 1.106900160435516591e+04
4.981099999999999639e+00 1.183395945808814577e+04
5.028100000000000236e+00 1.269804039193205972e+04
5.075099999999999945e+00 1.368219765492311126e+04
5.122099999999999653e+00 1.482888772662345036e+04
5.169100000000000250e+00 1.618835079925349237e+04
5.216099999999999959e+00 1.784555636998887712e+04
5.263099999999999667e+00 1.994938716018975902e+04
5.310100000000000264e+00 2.266755554990903693e+04
5.357099999999999973e+00 2.601440355766918219e+04
5.403999999999999915e+00 2.986639630250356640e+04
5.450999999999999623e+00 3.470160930038474908e+04
5.498000000000000220e+00 4.116097240819510625e+04
5.544999999999999929e+00 4.886863090931349143e+04
5.591999999999999638e+00 5.687279603170415794e+04
5.639000000000000234e+00 6.609127071658075147e+04
5.685999999999999943e+00 7.664257235435479379e+04
5.732999999999999652e+00 8.681222650958334270e+04
5.780000000000000249e+00 9.766893978734046686e+04
5.826999999999999957e+00 1.109072462824213871e+05
5.873999999999999666e+00 1.282291490934538742e+05
5.921000000000000263e+00 1.510272937285649532e+05
5.967900000000000205e+00 1.816310334166124521e+05
6.014899999999999913e+00 2.196896001014022331e+05
6.061899999999999622e+00 2.606240718024034577e+05
6.108900000000000219e+00 2.987474857419126783e+05
6.155899999999999928e+00 3.284122619833285571e+05
6.202899999999999636e+00 3.453548925423159380e+05
6.249900000000000233e+00 3.562036119860018953e+05
6.296899999999999942e+00 3.694761547809684998e+05
6.343899999999999650e+00 3.917310509007763467e+05
6.390900000000000247e+00 4.223269142968063825e+05
6.437899999999999956e+00 4.529386761948121130e+05
6.484899999999999665e+00 4.753849626769627212e+05
6.531799999999999606e+00 4.894981329717009212e+05
6.578800000000000203e+00 4.998522045798656764e+05
6.625799999999999912e+00 5.111556721285873209e+05
6.672799999999999621e+00 5.280801012745235348e+05
6.719800000000000217e+00 5.497125501644167816e+05
6.766799999999999926e+00 5.688234145719521912e+05
6.813799999999999635e+00 5.800582365275587654e+05
6.860800000000000232e+00 5.812221770197493024e+05
6.907799999999999940e+00 5.728974956542714499e+05
6.954799999999999649e+00 5.597409394159833901e+05
7.001800000000000246e+00 5.487817455299950670e+05
7.048799999999999955e+00 5.427688452337342314e+05
7.095699999999999896e+00 5.400244023167656269e+05
7.142699999999999605e+00 5.387741828552862862e+05
7.189700000000000202e+00 5.388686045177802444e+05
7.236699999999999910e+00 5.389935349366858136e+05
7.283699999999999619e+00 5.383106381426152075e+05
7.330700000000000216e+00 5.375257221899653086e+05
7.377699999999999925e+00 5.387868223023858154e+05
7.424699999999999633e+00 5.415955343217386398e+05
7.471700000000000230e+00 5.443052370221056044e+05
7.518699999999999939e+00 5.468972314672780922e+05
7.565699999999999648e+00 5.509571725217553321e+05
7.612700000000000244e+00 5.577709836097237421e+05
7.659600000000000186e+00 5.691720385962508153e+05
7.706599999999999895e+00 5.852335927963026334e+05
7.753599999999999604e+00 6.043440583165034186e+05
7.800600000000000200e+00 6.226341539635241497e+05
7.847599999999999909e+00 6.366292409487756668e+05
7.894599999999999618e+00 6.477789178273180733e+05
7.941600000000000215e+00 6.607097929834781680e+05
7.988599999999999923e+00 6.781550962911732495e+05
8.035600000000000520e+00 7.005624384160425980e+05
8.082599999999999341e+00 7.252722433540786151e+05
8.129599999999999937e+00 7.494729527150595095e+05
8.176600000000000534e+00 7.738167100738664158e+05
8.223499999999999588e+00 8.010766433128218632e+05
8.270500000000000185e+00 8.322135085587745998e+05
8.317500000000000782e+00 8.625706872114685830e+05
8.364499999999999602e+00 8.872256036161237862e+05
8.411500000000000199e+00 9.021152701945683220e+05
8.458500000000000796e+00 9.075683976958364947e+05
8.505499999999999616e+00 9.077335001301890006e+05
8.552500000000000213e+00 9.045373378069605678e+05
8.599500000000000810e+00 8.980915401545849163e+05
8.646499999999999631e+00 8.894683289351558778e+05
8.693500000000000227e+00 8.797577833548734197e+05
8.740500000000000824e+00 8.702857516830965178e+05
8.787399999999999878e+00 8.625523564357170835e+05
8.834400000000000475e+00 8.559488356260891305e+05
8.881399999999999295e+00 8.505172364480942488e+05
8.928399999999999892e+00 8.460108787922937190e+05
8.975400000000000489e+00 8.404224599383159075e+05
9.022399999999999309e+00 8.309003423730609939e+05
9.069399999999999906e+00 8.194796566633972107e+05
9.116400000000000503e+00 8.118084831772584002e+05
9.163399999999999324e+00 8.078157752550664591e+05
9.210399999999999920e+00 8.050254524949530605e+05
9.257400000000000517e+00 8.036756734390464844e+05
9.304399999999999338e+00 8.042421648681847146e+05
9.351300000000000168e+00 8.054775211845040321e+05
9.398300000000000765e+00 8.054321335451458581e+05
9.445299999999999585e+00 8.031761456383850891e+05
9.492300000000000182e+00 8.005358177197889891e+05
9.539300000000000779e+00 7.987833399818754988e+05
9.586299999999999599e+00 7.973058173198743025e+05
9.633300000000000196e+00 7.959911155745245051e+05
9.680300000000000793e+00 7.949166456874165451e+05
9.727299999999999613e+00 7.943533963105275761e+05
9.774300000000000210e+00 7.948984438770979177e+05
9.821300000000000807e+00 7.963399063524026424e+05
9.868299999999999628e+00 7.985024954612181755e+05
9.915200000000000458e+00 8.015350192259405740e+05
9.962199999999999278e+00 8.037397697788380319e+05
1.000919999999999987e+01 8.031792096772206714e+05
1.005620000000000047e+01 8.006052183001355734e+05
1.010319999999999929e+01 7.979978458663526690e+05
1.015019999999999989e+01 7.958813311724588275e+05
1.019720000000000049e+01 7.929651586552618537e+05
1.024419999999999931e+01 7.889619359280056087e+05
1.029119999999999990e+01 7.849721606719277333e+05
1.033820000000000050e+01 7.825303191752717830e+05
1.038519999999999932e+01 7.813087501619444229e+05
1.043219999999999992e+01 7.814595747495979303e+05
1.047910000000000075e+01 7.836917838760530576e+05
1.052609999999999957e+01 7.870790130198437255e+05
1.057310000000000016e+01 7.903580282913016854e+05
1.062010000000000076e+01 7.942787290713334223e+05
1.066709999999999958e+01 7.982427971533278469e+05
1.071410000000000018e+01 8.011010811922977446e+05
1.076110000000000078e+01 8.024773513890359318e+05
1.080809999999999960e+01 8.032009014058219036e+05
1.085510000000000019e+01 8.046556251303071622e+05
1.090210000000000079e+01 8.074327931193548720e+05
1.094909999999999961e+01 8.117354840732136508e+05
1.099610000000000021e+01 8.159690109446299030e+05
1.104299999999999926e+01 8.188899593075616285e+05
1.108999999999999986e+01 8.214372314836356090e+05
1.113700000000000045e+01 8.237595395507873036e+05
1.118399999999999928e+01 8.251329809409262380e+05
1.123099999999999987e+01 8.260270576470700325e+05
1.127800000000000047e+01 8.269648862851501908e+05
1.132499999999999929e+01 8.280260403154053492e+05
1.137199999999999989e+01 8.291921217485908419e+05
1.141900000000000048e+01 8.302060674302264815e+05
1.146599999999999930e+01 8.315735859942919342e+05
1.151299999999999990e+01 8.331671234628860839e+05
1.156000000000000050e+01 8.356559467627998674e+05
1.160689999999999955e+01 8.398909118243590929e+05
1.165390000000000015e+01 8.456115885953779798e+05
1.170090000000000074e+01 8.514317086996270809e+05
1.174789999999999957e+01 8.567042069043364609e+05
1.179490000000000016e+01 8.630611630889751250e+05
1.184190000000000076e+01 8.704639897120401729e+05
1.188889999999999958e+01 8.779684612296755658e+05
1.193590000000000018e+01 8.853394491775069619e+05
1.198290000000000077e+01 8.933895114727619803e+05
1.202989999999999959e+01 9.019009720325135859e+05
1.207690000000000019e+01 9.106774676363142207e+05
1.212390000000000079e+01 9.209165443833755562e+05
1.217079999999999984e+01 9.327826548967168201e+05
1.221780000000000044e+01 9.460836390565434704e+05
1.226479999999999926e+01 9.589876303740275325e+05
1.231179999999999986e+01 9.697210226028884063e+05
1.235880000000000045e+01 9.780586825601335149e+05
1.240579999999999927e+01 9.850254183387153316e+05
1.245279999999999987e+01 9.927215418282272294e+05
1.249980000000000047e+01 1.001374387491639820e+06
1.254679999999999929e+01 1.009218959403724293e+06
1.259379999999999988e+01 1.014830195705535938e+06
1.264080000000000048e+01 1.019993434891798766e+06
1.268779999999999930e+01 1.025160382231039461e+06
1.273479999999999990e+01 1.030545304684140952e+06
1.278170000000000073e+01 1.038377799650917295e+06
1.282869999999999955e+01 1.051186003086842364e+06
1.287570000000000014e+01 1.068307729738376802e+06
1.292270000000000074e+01 1.088685561168997781e+06
1.296969999999999956e+01 1.111320628982161870e+06
1.301670000000000016e+01 1.134132143900677329e+06
1.306370000000000076e+01 1.155254059788493672e+06
1.311069999999999958e+01 1.173070876081313705e+06
1.315770000000000017e+01 1.189203762140711537e+06
1.320470000000000077e+01 1.204495015091523062e+06
1.325169999999999959e+01 1.219777369970501401e+06
1.329870000000000019e+01 1.235628757653770503e+06
1.334559999999999924e+01 1.251562638061001431e+06
1.339259999999999984e+01 1.266361489101448329e+06
1.343960000000000043e+01 1.277361478041489841e+06
1.348659999999999926e+01 1.282260566625221400e+06
1.353359999999999985e+01 1.281556445411331253e+06
1.358060000000000045e+01 1.277719955068193143e+06
1.362759999999999927e+01 1.272121160530219320e+06
1.367459999999999987e+01 1.266527017128769541e+06
1.372160000000000046e+01 1.263415919183247956e+06
1.376859999999999928e+01 1.262631482060265727e+06
1.381559999999999988e+01 1.262726645018327050e+06
1.386260000000000048e+01 1.261735784337627003e+06
1.390949999999999953e+01 1.259231430873653619e+06
1.395650000000000013e+01 1.257032114855978871e+06
1.400350000000000072e+01 1.254620391718141502e+06
1.405049999999999955e+01 1.251889043665782548e+06
1.409750000000000014e+01 1.250059208524098387e+06
1.414450000000000074e+01 1.248717149956085021e+06
1.419149999999999956e+01 1.247433616756034782e+06
1.423850000000000016e+01 1.247909629028397612e+06
1.428550000000000075e+01 1.253828695728403749e+06
1.433249999999999957e+01 1.264637098255784716e+06
1.437950000000000017e+01 1.276625387210658751e+06
1.442650000000000077e+01 1.286480021462814650e+06
1.447339999999999982e+01 1.294147685244986555e+06
1.452040000000000042e+01 1.299644265632798197e+06
1.456739999999999924e+01 1.301908077094222186e+06
1.461439999999999984e+01 1.300878681326490128e+06
1.466140000000000043e+01 1.296737228869647952e+06
1.470839999999999925e+01 1.289836031367291231e+06
1.475539999999999985e+01 1.280311452848243061e+06
1.480240000000000045e+01 1.270773432210137835e+06
1.484939999999999927e+01 1.263351710912982468e+06
1.489639999999999986e+01 1.258947539935965789e+06
1.494340000000000046e+01 1.257834921717305435e+06
1.499039999999999928e+01 1.259579210837111808e+06
1.503730000000000011e+01 1.262115897444840986e+06
1.508430000000000071e+01 1.261923678042421117e+06
1.513129999999999953e+01 1.257026849527719663e+06
1.517830000000000013e+01 1.249321951698306017e+06
1.522530000000000072e+01 1.241121093733059475e+06
1.527229999999999954e+01 1.233162625979930861e+06
1.531930000000000014e+01 1.226323085666148225e+06
1.536630000000000074e+01 1.219677693345806794e+06
1.541329999999999956e+01 1.212531932901562424e+06
1.546030000000000015e+01 1.205627535482082050e+06
1.550730000000000075e+01 1.199884063146670116e+06
1.555429999999999957e+01 1.193760005233965581e+06
1.560120000000000040e+01 1.186035065337105654e+06
1.564819999999999922e+01 1.178643095825042110e+06
1.569519999999999982e+01 1.172744179739080369e+06
1.574220000000000041e+01 1.167800733985961881e+06
1.578919999999999924e+01 1.162640040945664048e+06
1.583619999999999983e+01 1.155108230387755204e+06
1.588320000000000043e+01 1.145526428533977130e+06
1.593019999999999925e+01 1.137299354960505385e+06
1.597719999999999985e+01 1.132189887366917450e+06
1.602420000000000044e+01 1.129687369173579384e+06
1.607120000000000104e+01 1.129651988350281259e+06
1.611820000000000164e+01 1.130020593437512405e+06
1.616509999999999891e+01 1.129549656038606307e+06
1.621209999999999951e+01 1.128077490456847474e+06
1.625910000000000011e+01 1.127317605810577050e+06
1.630610000000000070e+01 1.128006730076592881e+06
1.635310000000000130e+01 1.130623335823935224e+06
1.640009999999999835e+01 1.136258965685652569e+06
1.644709999999999894e+01 1.145578568902007537e+06
1.649409999999999954e+01 1.158281707192662638e+06
1.654110000000000014e+01 1.172054820415640250e+06
1.658810000000000073e+01 1.184891529223824386e+06
1.663510000000000133e+01 1.196127972629548283e+06
1.668209999999999837e+01 1.204797390152387554e+06
1.672899999999999920e+01 1.209934652136893244e+06
1.677599999999999980e+01 1.210706181401326321e+06
1.682300000000000040e+01 1.205028163293179125e+06
1.687000000000000099e+01 1.194940131007623160e+06
1.691700000000000159e+01 1.185509312691108789e+06
1.696399999999999864e+01 1.178850755744996248e+06
1.701099999999999923e+01 1.174257948382039554e+06
1.705799999999999983e+01 1.170624709461024962e+06
1.710500000000000043e+01 1.171314254653207725e+06
1.715200000000000102e+01 1.178990103570397710e+06
1.719900000000000162e+01 1.191238134726337390e+06
1.724599999999999866e+01 1.205589091912101256e+06
1.729289999999999949e+01 1.219748691778644919e+06
1.733990000000000009e+01 1.231893121827421943e+06
1.738690000000000069e+01 1.243250953851613449e+06
1.743390000000000128e+01 1.255957096801547101e+06
1.748089999999999833e+01 1.269369702858045697e+06
1.752789999999999893e+01 1.281656726925494615e+06
1.757489999999999952e+01 1.295960990753892343e+06
1.762190000000000012e+01 1.318169117799100699e+06
1.766890000000000072e+01 1.347985159013249911e+06
1.771590000000000131e+01 1.382341895767532522e+06
1.776289999999999836e+01 1.419856601272305474e+06
1.780989999999999895e+01 1.456548680025782669e+06
1.785679999999999978e+01 1.484683502041339874e+06
1.790380000000000038e+01 1.498742827172503807e+06
1.795080000000000098e+01 1.499413338527021930e+06
1.799780000000000157e+01 1.491950974262260366e+06
1.804479999999999862e+01 1.480939603546005208e+06
1.809179999999999922e+01 1.469922558706475887e+06
1.813879999999999981e+01 1.458055977649063105e+06
1.818580000000000041e+01 1.444135796668250114e+06
1.823280000000000101e+01 1.432369944994802121e+06
1.827980000000000160e+01 1.421712561734800227e+06
1.832679999999999865e+01 1.409680319655606057e+06
1.837379999999999924e+01 1.397253466259388486e+06
1.842070000000000007e+01 1.384177810700349277e+06
1.846770000000000067e+01 1.371257007729548030e+06
1.851470000000000127e+01 1.360007224016869674e+06
1.856169999999999831e+01 1.349877473899119301e+06
1.860869999999999891e+01 1.340265940247989260e+06
1.865569999999999951e+01 1.330131712368094129e+06
1.870270000000000010e+01 1.318062377210612409e+06
