# energy(eV) alpha
0.000000000000000000e+00 0.000000000000000000e+00
4.710000000000000298e-02 2.816921128401898011e-01
9.410000000000000309e-02 1.125539646140145233e+00
1.411999999999999922e-01 2.814731529003658306e+00
1.882999999999999952e-01 4.879448665479498182e+00
2.353000000000000091e-01 7.503799074241588762e+00
2.823999999999999844e-01 1.069343596663593665e+01
3.295000000000000151e-01 1.444538844807071953e+01
3.765000000000000013e-01 1.875429386563091683e+01
4.235999999999999766e-01 2.447283171845065652e+01
4.707000000000000073e-01 3.000191352168838677e+01
5.177000000000000490e-01 3.660018745140219210e+01
5.647999999999999687e-01 4.329564308321233312e+01
6.118999999999999995e-01 5.176844890237656216e+01
6.589000000000000412e-01 5.966555166197952786e+01
7.059999999999999609e-01 6.812847997151671109e+01
7.530000000000000027e-01 7.713722084386361644e+01
8.001000000000000334e-01 8.830262345337914098e+01
8.471999999999999531e-01 9.936568368716228861e+01
8.941999999999999948e-01 1.101753702888327098e+02
9.413000000000000256e-01 1.234184053831421579e+02
9.883999999999999453e-01 1.354353832996435756e+02
1.035400000000000098e+00 1.490146523229774687e+02
1.082500000000000018e+00 1.643216466073544950e+02
1.129599999999999937e+00 1.781209654998023098e+02
1.176600000000000090e+00 1.947809657696861052e+02
1.223700000000000010e+00 2.109738195805919077e+02
1.270799999999999930e+00 2.290558332595271622e+02
1.317800000000000082e+00 2.465401813711125953e+02
1.364900000000000002e+00 2.660218967467052380e+02
1.411999999999999922e+00 2.862220704545080139e+02
1.459000000000000075e+00 3.056787526162037238e+02
1.506099999999999994e+00 3.272619713935878281e+02
1.553199999999999914e+00 3.510910437105629853e+02
1.600200000000000067e+00 3.757001094011001214e+02
1.647299999999999986e+00 3.978736414971942850e+02
1.694399999999999906e+00 4.223325742134186385e+02
1.741400000000000059e+00 4.491798024057156908e+02
1.788499999999999979e+00 4.750791374593471801e+02
1.835599999999999898e+00 5.034734070336823493e+02
1.882600000000000051e+00 5.344712317616634891e+02
1.929699999999999971e+00 5.644648734561762922e+02
1.976699999999999902e+00 5.971391149005879697e+02
2.023800000000000043e+00 6.287094893603220953e+02
2.070899999999999963e+00 6.630747037684890302e+02
2.117900000000000116e+00 6.982553255338666531e+02
2.165000000000000036e+00 7.321834749360951946e+02
2.212099999999999955e+00 7.733465657875033230e+02
2.259100000000000108e+00 8.110663141816162351e+02
2.306200000000000028e+00 8.496493199970544765e+02
2.353299999999999947e+00 8.936286483916793486e+02
2.400300000000000100e+00 9.385552985947956586e+02
2.447400000000000020e+00 9.797383853929046609e+02
2.494499999999999940e+00 1.028990705744214210e+03
2.541500000000000092e+00 1.076777445998182202e+03
2.588600000000000012e+00 1.128070968778027691e+03
2.635699999999999932e+00 1.177839176859170493e+03
2.682700000000000085e+00 1.233688550613721418e+03
2.729800000000000004e+00 1.285405873910150149e+03
2.776899999999999924e+00 1.346078956504300777e+03
2.823900000000000077e+00 1.405132985007097432e+03
2.870999999999999996e+00 1.468064224449075255e+03
2.918099999999999916e+00 1.529312379190477714e+03
2.965100000000000069e+00 1.597247358674275574e+03
3.012199999999999989e+00 1.666410765272951721e+03
3.059299999999999908e+00 1.742611312460168392e+03
3.106300000000000061e+00 1.814145875950251593e+03
3.153399999999999981e+00 1.892881423641488482e+03
3.200499999999999901e+00 1.972886802772642113e+03
3.247500000000000053e+00 2.057197767896756432e+03
3.294599999999999973e+00 2.146032279624492730e+03
3.341600000000000126e+00 2.239327964503932435e+03
3.388700000000000045e+00 2.330945382861122653e+03
3.435799999999999965e+00 2.430356116295464744e+03
3.482800000000000118e+00 2.534454976953836194e+03
3.529900000000000038e+00 2.643424366303440820e+03
3.576999999999999957e+00 2.750626752712283178e+03
3.624000000000000110e+00 2.869371129317713894e+03
3.671100000000000030e+00 2.989803645786977995e+03
3.718199999999999950e+00 3.118808141016767877e+03
3.765200000000000102e+00 3.252906129840532230e+03
3.812300000000000022e+00 3.395909534435791556e+03
3.859399999999999942e+00 3.540713781501285212e+03
3.906400000000000095e+00 3.701630719406345634e+03
3.953500000000000014e+00 3.861009063348352356e+03
4.000600000000000378e+00 4.033274747470236889e+03
4.047600000000000087e+00 4.211157571998190178e+03
4.094699999999999562e+00 4.398587944335204156e+03
4.141799999999999926e+00 4.603174272709431534e+03
4.188799999999999635e+00 4.809870113839390797e+03
4.235899999999999999e+00 5.034142261834420424e+03
4.283000000000000362e+00 5.276152275127832581e+03
4.330000000000000071e+00 5.524324240559459213e+03
4.377100000000000435e+00 5.798505829701152834e+03
4.424199999999999910e+00 6.079112734851222740e+03
4.471199999999999619e+00 6.385909886037169599e+03
4.518299999999999983e+00 6.711461155380721721e+03
4.565400000000000347e+00 7.063835801572689888e+03
4.612400000000000055e+00 7.438918858429274223e+03
4.659500000000000419e+00 7.849534673979520448e+03
4.706500000000000128e+00 8.287359194979777385e+03
4.753599999999999604e+00 8.769304592630443949e+03
4.800699999999999967e+00 9.295447036903829940e+03
4.847699999999999676e+00 9.874112818061061262e+03
4.894800000000000040e+00 1.051004820603713233e+04
4.941900000000000404e+00 1.121989533921166367e+04
4.988900000000000112e+00 1.202036215826883381e+04
5.035999999999999588e+00 1.292464902052806247e+04
5.083099999999999952e+00 1.396629273980098515e+04
5.130099999999999660e+00 1.519156385387684350e+04
5.177200000000000024e+00 1.666449062851908457e+04
5.224300000000000388e+00 1.849954147325492522e+04
5.271300000000000097e+00 2.088468274569334608e+04
5.318399999999999572e+00 2.401556713201709863e+04
5.365499999999999936e+00 2.783922919955162070e+04
5.412499999999999645e+00 3.222507888150615690e+04
5.459600000000000009e+00 3.791652925617195433e+04
5.506700000000000372e+00 4.492800275393843185e+04
5.553700000000000081e+00 5.207226540782523080e+04
5.600799999999999557e+00 6.029952576960274746e+04
5.647899999999999920e+00 6.992885354654522962e+04
5.694899999999999629e+00 7.939086788730911212e+04
5.741999999999999993e+00 8.878414609442239453e+04
5.789100000000000357e+00 9.922409321212767099e+04
5.836100000000000065e+00 1.125460658522743615e+05
5.883200000000000429e+00 1.301873659272192308e+05
5.930200000000000138e+00 1.539409603426041140e+05
5.977299999999999613e+00 1.860463126183675777e+05
6.024399999999999977e+00 2.254148654552996159e+05
6.071399999999999686e+00 2.666397545500120614e+05
6.118500000000000050e+00 3.046408791894338210e+05
6.165600000000000414e+00 3.338023139640616719e+05
6.212600000000000122e+00 3.493447129043166642e+05
6.259699999999999598e+00 3.581315214217125322e+05
6.306799999999999962e+00 3.697683489901694702e+05
6.353799999999999670e+00 3.912824907777222106e+05
6.400900000000000034e+00 4.227708333155066939e+05
6.448000000000000398e+00 4.548783020257819444e+05
6.495000000000000107e+00 4.778682241440407233e+05
6.542099999999999582e+00 4.918058586845870595e+05
6.589199999999999946e+00 5.012258765968246735e+05
6.636199999999999655e+00 5.110226585107735591e+05
6.683300000000000018e+00 5.260741223594400799e+05
6.730400000000000382e+00 5.459177477597299730e+05
6.777400000000000091e+00 5.646411403189068660e+05
6.824499999999999567e+00 5.770323602302111685e+05
6.871599999999999930e+00 5.799493120884060627e+05
6.918599999999999639e+00 5.732476923744276864e+05
6.965700000000000003e+00 5.615716237696241587e+05
7.012800000000000367e+00 5.518946111306387465e+05
7.059800000000000075e+00 5.467054438460357487e+05
7.106900000000000439e+00 5.433813072140004952e+05
7.153999999999999915e+00 5.410005006479427684e+05
7.200999999999999623e+00 5.405183178951243171e+05
7.248099999999999987e+00 5.404895492012244649e+05
7.295099999999999696e+00 5.394629580648662522e+05
7.342200000000000060e+00 5.366131147507317364e+05
7.389300000000000423e+00 5.337928406143455068e+05
7.436300000000000132e+00 5.329731944125063019e+05
7.483399999999999608e+00 5.342151808291218476e+05
7.530499999999999972e+00 5.357463820777222281e+05
7.577499999999999680e+00 5.375196361385255586e+05
7.624600000000000044e+00 5.416866008590892889e+05
7.671700000000000408e+00 5.509949475412579486e+05
7.718700000000000117e+00 5.664609737278162502e+05
7.765799999999999592e+00 5.863775352951226523e+05
7.812899999999999956e+00 6.058936676787806209e+05
7.859899999999999665e+00 6.222032583542977227e+05
7.907000000000000028e+00 6.362640859060112853e+05
7.954100000000000392e+00 6.535832327830225695e+05
8.001099999999999213e+00 6.769940592464915244e+05
8.048199999999999577e+00 7.039159773552851984e+05
8.095299999999999940e+00 7.318002253835303709e+05
8.142300000000000537e+00 7.594375074605357368e+05
8.189399999999999125e+00 7.871737820036484627e+05
8.236499999999999488e+00 8.158532808190627256e+05
8.283500000000000085e+00 8.464837441721862415e+05
8.330600000000000449e+00 8.763726437233039178e+05
8.377700000000000813e+00 9.011515585953701520e+05
8.424699999999999633e+00 9.176366274627951207e+05
8.471799999999999997e+00 9.265154725143247051e+05
8.518900000000000361e+00 9.294771092179528205e+05
8.565899999999999181e+00 9.258991867071067682e+05
8.612999999999999545e+00 9.157697638619414065e+05
8.660000000000000142e+00 9.019122096033415291e+05
8.707100000000000506e+00 8.868774820724638412e+05
8.754200000000000870e+00 8.713501996145547600e+05
8.801199999999999690e+00 8.575322045909872977e+05
8.848300000000000054e+00 8.471360263193362625e+05
8.895400000000000418e+00 8.397854655525950948e+05
8.942399999999999238e+00 8.342301386708184145e+05
8.989499999999999602e+00 8.272979361370536499e+05
9.036599999999999966e+00 8.182402604743806878e+05
9.083600000000000563e+00 8.090475398982716724e+05
9.130699999999999150e+00 8.021348195536246058e+05
9.177799999999999514e+00 7.986979688546509715e+05
9.224800000000000111e+00 7.984409566115136258e+05
9.271900000000000475e+00 8.001065975005928194e+05
9.319000000000000838e+00 8.034794624793902040e+05
9.365999999999999659e+00 8.086480775532944826e+05
9.413100000000000023e+00 8.141365374103029026e+05
9.460200000000000387e+00 8.181409129187628860e+05
9.507199999999999207e+00 8.199979624104459072e+05
9.554299999999999571e+00 8.190299054569306318e+05
9.601399999999999935e+00 8.160022250763863558e+05
9.648400000000000531e+00 8.132968612205359386e+05
9.695499999999999119e+00 8.117094151617099997e+05
9.742599999999999483e+00 8.106105867168173427e+05
9.789600000000000080e+00 8.099705343152018031e+05
9.836700000000000443e+00 8.110078276092534652e+05
9.883699999999999264e+00 8.147148592436739709e+05
9.930799999999999628e+00 8.190200505465506576e+05
9.977899999999999991e+00 8.211182768501737155e+05
1.002490000000000059e+01 8.199306160383988172e+05
1.007199999999999918e+01 8.168379220168751199e+05
1.011909999999999954e+01 8.133818676631124690e+05
1.016610000000000014e+01 8.101283329002577811e+05
1.021320000000000050e+01 8.066302786373031558e+05
1.026030000000000086e+01 8.025094519410558278e+05
1.030729999999999968e+01 7.979386764430104522e+05
1.035440000000000005e+01 7.932175329623069847e+05
1.040150000000000041e+01 7.892089503417644883e+05
1.044849999999999923e+01 7.874187127132664900e+05
1.049559999999999960e+01 7.886462550948924618e+05
1.054269999999999996e+01 7.927469122123635607e+05
1.058970000000000056e+01 7.985355874318389688e+05
1.063679999999999914e+01 8.047235782636031508e+05
1.068389999999999951e+01 8.114624702601480531e+05
1.073090000000000011e+01 8.178456833880529739e+05
1.077800000000000047e+01 8.237740737028018339e+05
1.082510000000000083e+01 8.289828241512821987e+05
1.087209999999999965e+01 8.333184874847769970e+05
1.091920000000000002e+01 8.376990110516425921e+05
1.096630000000000038e+01 8.428157177634701366e+05
1.101329999999999920e+01 8.474312256303019822e+05
1.106039999999999957e+01 8.500748860825194279e+05
1.110749999999999993e+01 8.512959079181477427e+05
1.115450000000000053e+01 8.516591404095732141e+05
1.120159999999999911e+01 8.504347150503802113e+05
1.124859999999999971e+01 8.484072288580926834e+05
1.129570000000000007e+01 8.466742126214145683e+05
1.134280000000000044e+01 8.458104835439269664e+05
1.138979999999999926e+01 8.458978466761981836e+05
1.143689999999999962e+01 8.450717612223412143e+05
1.148399999999999999e+01 8.428599685974852182e+05
1.153100000000000058e+01 8.407313877561377594e+05
1.157809999999999917e+01 8.404596670501171611e+05
1.162519999999999953e+01 8.432001119498210028e+05
1.167220000000000013e+01 8.483172761601905804e+05
1.171930000000000049e+01 8.542845083928802051e+05
1.176640000000000086e+01 8.599587194238917436e+05
1.181339999999999968e+01 8.662849013495902764e+05
1.186050000000000004e+01 8.733508063390374882e+05
1.190760000000000041e+01 8.800388480569702806e+05
1.195459999999999923e+01 8.857293925938310567e+05
1.200169999999999959e+01 8.913344176745307632e+05
1.204879999999999995e+01 8.983158738752781646e+05
1.209580000000000055e+01 9.082667321515385993e+05
1.214289999999999914e+01 9.198605279547201935e+05
1.218999999999999950e+01 9.317766133772645844e+05
1.223700000000000010e+01 9.436177768075059867e+05
1.228410000000000046e+01 9.546638599813072942e+05
1.233120000000000083e+01 9.644850182891642908e+05
1.237819999999999965e+01 9.729630476090247976e+05
1.242530000000000001e+01 9.803553196335072862e+05
1.247240000000000038e+01 9.875035316530968994e+05
1.251939999999999920e+01 9.947309661306762137e+05
1.256649999999999956e+01 1.001536400017663836e+06
1.261350000000000016e+01 1.006010125013362966e+06
1.266060000000000052e+01 1.008193373182550771e+06
1.270770000000000088e+01 1.009883793312607915e+06
1.275469999999999970e+01 1.012938979552782374e+06
1.280180000000000007e+01 1.018608889995256322e+06
1.284890000000000043e+01 1.028648322769125458e+06
1.289589999999999925e+01 1.044227199531242484e+06
1.294299999999999962e+01 1.065338808912685141e+06
1.299009999999999998e+01 1.088508982460335828e+06
1.303710000000000058e+01 1.109665481034047203e+06
1.308419999999999916e+01 1.125885866313884733e+06
1.313129999999999953e+01 1.136852519558244385e+06
1.317830000000000013e+01 1.145105717377295718e+06
1.322540000000000049e+01 1.153077890998515999e+06
1.327250000000000085e+01 1.161822991618652595e+06
1.331949999999999967e+01 1.170363408139409032e+06
1.336660000000000004e+01 1.179758187928864500e+06
1.341370000000000040e+01 1.190838074089363450e+06
1.346069999999999922e+01 1.201119637657473562e+06
1.350779999999999959e+01 1.208608162833604263e+06
1.355489999999999995e+01 1.213128296772926813e+06
1.360190000000000055e+01 1.215438293083730852e+06
1.364899999999999913e+01 1.214716254819757072e+06
1.369609999999999950e+01 1.211044016499750549e+06
1.374310000000000009e+01 1.206388686371022137e+06
1.379020000000000046e+01 1.201941872689079726e+06
1.383719999999999928e+01 1.198373370857027592e+06
1.388429999999999964e+01 1.195129837308043614e+06
1.393140000000000001e+01 1.189973238613797585e+06
1.397840000000000060e+01 1.181624017871404998e+06
1.402549999999999919e+01 1.171518287915055873e+06
1.407259999999999955e+01 1.161084028883780120e+06
1.411960000000000015e+01 1.152052285035030218e+06
1.416670000000000051e+01 1.144949118664939655e+06
1.421380000000000088e+01 1.139286825407942291e+06
1.426079999999999970e+01 1.134481291893608402e+06
1.430790000000000006e+01 1.131404337572212098e+06
1.435500000000000043e+01 1.132008354588833870e+06
1.440199999999999925e+01 1.134193401281466475e+06
1.444909999999999961e+01 1.134333714151415043e+06
1.449619999999999997e+01 1.132080519434148213e+06
1.454320000000000057e+01 1.129714861870502587e+06
1.459029999999999916e+01 1.129174011928560678e+06
1.463739999999999952e+01 1.130263391546866857e+06
1.468440000000000012e+01 1.132507392416351475e+06
1.473150000000000048e+01 1.133989239537106128e+06
1.477860000000000085e+01 1.134138565778625663e+06
1.482559999999999967e+01 1.134715981792038307e+06
1.487270000000000003e+01 1.136126174926522886e+06
1.491980000000000040e+01 1.138202924922805978e+06
1.496679999999999922e+01 1.142016348744298331e+06
1.501389999999999958e+01 1.147210861537261633e+06
1.506099999999999994e+01 1.151560435522232903e+06
1.510800000000000054e+01 1.153072700790420873e+06
1.515509999999999913e+01 1.150957763050498907e+06
1.520209999999999972e+01 1.146483694564850535e+06
1.524920000000000009e+01 1.140769970497328322e+06
1.529630000000000045e+01 1.134023221464597387e+06
1.534329999999999927e+01 1.126684746395572554e+06
1.539039999999999964e+01 1.119600541697291192e+06
1.543750000000000000e+01 1.114447711727843387e+06
1.548450000000000060e+01 1.112507748705096543e+06
1.553159999999999918e+01 1.113565579729449237e+06
1.557869999999999955e+01 1.115395592343932483e+06
1.562570000000000014e+01 1.115623169135365169e+06
1.567280000000000051e+01 1.113528010202042526e+06
1.571990000000000087e+01 1.109025217854525894e+06
1.576689999999999969e+01 1.103374862072527409e+06
1.581400000000000006e+01 1.096751754926814931e+06
1.586110000000000042e+01 1.088240182880886830e+06
1.590809999999999924e+01 1.080903064188587479e+06
1.595519999999999960e+01 1.077484985268501332e+06
1.600230000000000175e+01 1.076456015249239281e+06
1.604929999999999879e+01 1.075900921715039294e+06
1.609639999999999915e+01 1.076869869381700642e+06
1.614349999999999952e+01 1.081737385353806894e+06
1.619050000000000011e+01 1.089945208872539224e+06
1.623760000000000048e+01 1.099620781846093712e+06
1.628470000000000084e+01 1.110024977750527672e+06
1.633170000000000144e+01 1.119906916309942724e+06
1.637879999999999825e+01 1.128475533593151486e+06
1.642589999999999861e+01 1.136348494768834207e+06
1.647289999999999921e+01 1.144848453830431681e+06
1.651999999999999957e+01 1.154205491336242296e+06
1.656700000000000017e+01 1.163032656393690500e+06
1.661410000000000053e+01 1.171002704806236085e+06
1.666120000000000090e+01 1.178433736891737673e+06
1.670820000000000149e+01 1.184961508926319191e+06
1.675529999999999831e+01 1.188724338008659426e+06
1.680239999999999867e+01 1.188546380177384941e+06
1.684939999999999927e+01 1.184975842374815606e+06
1.689649999999999963e+01 1.181237452138446970e+06
1.694359999999999999e+01 1.180974151724178577e+06
1.699060000000000059e+01 1.184395217949693324e+06
1.703770000000000095e+01 1.188387087348566856e+06
1.708480000000000132e+01 1.191318026779087726e+06
1.713179999999999836e+01 1.192343837590527488e+06
1.717889999999999873e+01 1.192344786190781277e+06
1.722599999999999909e+01 1.192859253741085762e+06
1.727299999999999969e+01 1.194901408685806673e+06
1.732010000000000005e+01 1.202232109875071095e+06
1.736720000000000041e+01 1.217624724581803661e+06
1.741420000000000101e+01 1.240378014044945594e+06
1.746130000000000138e+01 1.268154716992490459e+06
1.750840000000000174e+01 1.298206845713963732e+06
1.755539999999999878e+01 1.329137721136873122e+06
1.760249999999999915e+01 1.362367588664133567e+06
1.764959999999999951e+01 1.400201833260239568e+06
1.769660000000000011e+01 1.440202421440124977e+06
1.774370000000000047e+01 1.479148361832884140e+06
1.779070000000000107e+01 1.515721489237969276e+06
1.783780000000000143e+01 1.548873730910370592e+06
1.788489999999999824e+01 1.572906728044957621e+06
1.793189999999999884e+01 1.583082354719612282e+06
1.797899999999999920e+01 1.580004668181496672e+06
1.802609999999999957e+01 1.566113357433344005e+06
1.807310000000000016e+01 1.547299793844787404e+06
1.812020000000000053e+01 1.531050761877996847e+06
1.816730000000000089e+01 1.517932673078071326e+06
1.821430000000000149e+01 1.505168561696571298e+06
1.826139999999999830e+01 1.494073952132766135e+06
1.830849999999999866e+01 1.484032252768629231e+06
1.835549999999999926e+01 1.471817749940589536e+06
1.840259999999999962e+01 1.457212518870692234e+06
1.844969999999999999e+01 1.441297228835704038e+06
1.849670000000000059e+01 1.424844712710482534e+06
1.854380000000000095e+01 1.409713912644476630e+06
1.859090000000000131e+01 1.396577340408069314e+06
1.863789999999999836e+01 1.385503074897825019e+06
1.868499999999999872e+01 1.375137432866431307e+06
1.873209999999999908e+01 1.364764019676032010e+06
