# energy(eV) alpha
0.000000000000000000e+00 0.000000000000000000e+00
3.280000000000000276e-02 8.157038313967576171e-01
6.560000000000000553e-02 3.099512780368394615e+00
9.840000000000000135e-02 7.095569303503642899e+00
1.310999999999999943e-01 1.238576744663610185e+01
1.638999999999999901e-01 1.955624105024084258e+01
1.967000000000000137e-01 2.835329180550380102e+01
2.295000000000000095e-01 3.858550124540553838e+01
2.622999999999999776e-01 5.060297877731237293e+01
2.950999999999999734e-01 6.424006421396518363e+01
3.279000000000000248e-01 7.949386960219929676e+01
3.607000000000000206e-01 9.606229624735986761e+01
3.934000000000000274e-01 1.144815173107181607e+02
4.262000000000000233e-01 1.352357588500171914e+02
4.590000000000000191e-01 1.580776540119113918e+02
4.918000000000000149e-01 1.822689507070451782e+02
5.245999999999999552e-01 2.081566460766086664e+02
5.574000000000000066e-01 2.357337049045867445e+02
5.901999999999999469e-01 2.664498681095595884e+02
6.229999999999999982e-01 2.984902249775900600e+02
6.556999999999999496e-01 3.338692165971502277e+02
6.885000000000000009e-01 3.700897802651108464e+02
7.213000000000000522e-01 4.093023783517890024e+02
7.540999999999999925e-01 4.516517542245898085e+02
7.869000000000000439e-01 4.947096763231333512e+02
8.196999999999999842e-01 5.430017118129676419e+02
8.525000000000000355e-01 5.927211382848330459e+02
8.852999999999999758e-01 6.452243153380590002e+02
9.180000000000000382e-01 7.012502190142462268e+02
9.507999999999999785e-01 7.595177352966750277e+02
9.836000000000000298e-01 8.239594461150114739e+02
1.016399999999999970e+00 8.899715673448955613e+02
1.049199999999999910e+00 9.591599276463319939e+02
1.082000000000000073e+00 1.034206529333106801e+03
1.114800000000000013e+00 1.114488258486304630e+03
1.147599999999999953e+00 1.199268606738444532e+03
1.180299999999999905e+00 1.286663650203474162e+03
1.213100000000000067e+00 1.380734954889840310e+03
1.245900000000000007e+00 1.482672868827690763e+03
1.278699999999999948e+00 1.589685606857314269e+03
1.311500000000000110e+00 1.705044884209675956e+03
1.344300000000000050e+00 1.825838415077508898e+03
1.377099999999999991e+00 1.956533906932974560e+03
1.409799999999999942e+00 2.096225167466758649e+03
1.442600000000000104e+00 2.246607068347993390e+03
1.475400000000000045e+00 2.407920401941763885e+03
1.508199999999999985e+00 2.581617038760738524e+03
1.540999999999999925e+00 2.769308606908155070e+03
1.573800000000000088e+00 2.973912743288824004e+03
1.606600000000000028e+00 3.195900190386691975e+03
1.639399999999999968e+00 3.438370912443880115e+03
1.672099999999999920e+00 3.705529443140065723e+03
1.704900000000000082e+00 3.999921622202367871e+03
1.737700000000000022e+00 4.324699186665872730e+03
1.770499999999999963e+00 4.687500437367292761e+03
1.803299999999999903e+00 5.094793276056017021e+03
1.836100000000000065e+00 5.553277075057679212e+03
1.868900000000000006e+00 6.076955053650437549e+03
1.901699999999999946e+00 6.683106651649276500e+03
1.934399999999999897e+00 7.384721517953626062e+03
1.967200000000000060e+00 8.212296803969624307e+03
2.000000000000000000e+00 9.198840503189827359e+03
2.032799999999999940e+00 1.039938834290232626e+04
2.065599999999999881e+00 1.188197314545801055e+04
2.098399999999999821e+00 1.375666246517494073e+04
2.131200000000000205e+00 1.618248642932162693e+04
2.164000000000000146e+00 1.940386546083375288e+04
2.196699999999999875e+00 2.379323019035224934e+04
2.229499999999999815e+00 2.988581639645646283e+04
2.262300000000000200e+00 3.830144373113824258e+04
2.295100000000000140e+00 4.953011326876628300e+04
2.327900000000000080e+00 6.365281993761546619e+04
2.360700000000000021e+00 7.960465492568742775e+04
2.393499999999999961e+00 9.452132631786551792e+04
2.426299999999999901e+00 1.048206736130939826e+05
2.459000000000000075e+00 1.074198315790454217e+05
2.491800000000000015e+00 1.016968337597722129e+05
2.524599999999999955e+00 9.045889537572822883e+04
2.557399999999999896e+00 7.851622509850916686e+04
2.590199999999999836e+00 6.906243173817270144e+04
2.623000000000000220e+00 6.237629360511798586e+04
2.655800000000000161e+00 5.770009906640317058e+04
2.688499999999999890e+00 5.476422119870712777e+04
2.721299999999999830e+00 5.339631012629957695e+04
2.754100000000000215e+00 5.343841206984417659e+04
2.786900000000000155e+00 5.514025625749148458e+04
2.819700000000000095e+00 5.887975552263284044e+04
2.852500000000000036e+00 6.475305252283233858e+04
2.885299999999999976e+00 7.258524976390677330e+04
2.918099999999999916e+00 8.213715680716275529e+04
2.950800000000000090e+00 9.337805474761364167e+04
2.983600000000000030e+00 1.058096357204939413e+05
3.016399999999999970e+00 1.174395793422814022e+05
3.049199999999999910e+00 1.252577042561943235e+05
3.081999999999999851e+00 1.279033200176908722e+05
3.114799999999999791e+00 1.266461431414349208e+05
3.147600000000000176e+00 1.248200588413261867e+05
3.180400000000000116e+00 1.252886335944649472e+05
3.213099999999999845e+00 1.277620331747414893e+05
3.245899999999999785e+00 1.301879394762326701e+05
3.278700000000000170e+00 1.326426104448206024e+05
3.311500000000000110e+00 1.363647493277676404e+05
3.344300000000000050e+00 1.420453446659015608e+05
3.377099999999999991e+00 1.503952316462375748e+05
3.409899999999999931e+00 1.617272607791405171e+05
3.442699999999999871e+00 1.755335565895803447e+05
3.475400000000000045e+00 1.916594061040861707e+05
3.508199999999999985e+00 2.091707566964217403e+05
3.540999999999999925e+00 2.260425799437063979e+05
3.573799999999999866e+00 2.414548327418350964e+05
3.606599999999999806e+00 2.554469629295802442e+05
3.639400000000000190e+00 2.684889287307568593e+05
3.672200000000000131e+00 2.814344862459708820e+05
3.705000000000000071e+00 2.945458847917214152e+05
3.737699999999999800e+00 3.071789448860687553e+05
3.770500000000000185e+00 3.190394168498099316e+05
3.803300000000000125e+00 3.301129084459366277e+05
3.836100000000000065e+00 3.396044360251664184e+05
3.868900000000000006e+00 3.465375640565493959e+05
3.901699999999999946e+00 3.516809542900302331e+05
3.934499999999999886e+00 3.582339983209391939e+05
3.967200000000000060e+00 3.680643089586963761e+05
4.000000000000000000e+00 3.787671386081706150e+05
4.032799999999999940e+00 3.880523139505971922e+05
4.065599999999999881e+00 3.965308483765083947e+05
4.098399999999999821e+00 4.051889646536937216e+05
4.131199999999999761e+00 4.138023695708213490e+05
4.163999999999999702e+00 4.209076734562361962e+05
4.196799999999999642e+00 4.243374286788274767e+05
4.229499999999999815e+00 4.230069225475558778e+05
4.262299999999999756e+00 4.176490539321985561e+05
4.295099999999999696e+00 4.102024183577303775e+05
4.327899999999999636e+00 4.028919828372363700e+05
4.360699999999999577e+00 3.967043711051612627e+05
4.393500000000000405e+00 3.922186964058607700e+05
4.426300000000000345e+00 3.909498222639023443e+05
4.459100000000000286e+00 3.945153406160657760e+05
4.491799999999999571e+00 4.036437728461992810e+05
4.524600000000000399e+00 4.178927570491914521e+05
4.557400000000000340e+00 4.358100845935619436e+05
4.590200000000000280e+00 4.556002551398038631e+05
4.623000000000000220e+00 4.749326929241075413e+05
4.655800000000000161e+00 4.920600751907806844e+05
4.688600000000000101e+00 5.064455777052499470e+05
4.721400000000000041e+00 5.175140894558458822e+05
4.754100000000000215e+00 5.248102000924944878e+05
4.786900000000000155e+00 5.291369032316652592e+05
4.819700000000000095e+00 5.336115703280150192e+05
4.852500000000000036e+00 5.411405483690084657e+05
4.885299999999999976e+00 5.509641293823013548e+05
4.918099999999999916e+00 5.602847457433498930e+05
4.950899999999999856e+00 5.664694729898147052e+05
4.983699999999999797e+00 5.689119703598598717e+05
5.016399999999999970e+00 5.692071465905189980e+05
5.049199999999999910e+00 5.690236563890603138e+05
5.081999999999999851e+00 5.686795733266659081e+05
5.114799999999999791e+00 5.675391851320853457e+05
5.147599999999999731e+00 5.651888360493811779e+05
5.180399999999999672e+00 5.619720771154344548e+05
5.213199999999999612e+00 5.568678421345836250e+05
5.245899999999999785e+00 5.474635835894349730e+05
5.278699999999999726e+00 5.337365702344218735e+05
5.311499999999999666e+00 5.189314495932133868e+05
5.344299999999999606e+00 5.061241153068337590e+05
5.377100000000000435e+00 4.965909351782036829e+05
5.409900000000000375e+00 4.908772128411179874e+05
5.442700000000000315e+00 4.897595989892269135e+05
5.475500000000000256e+00 4.932492661028764560e+05
5.508200000000000429e+00 4.996235960792090045e+05
5.541000000000000369e+00 5.069976864995089127e+05
5.573800000000000310e+00 5.152285412887403509e+05
5.606600000000000250e+00 5.266755045612237882e+05
5.639400000000000190e+00 5.435727705389014445e+05
5.672200000000000131e+00 5.654634001956682187e+05
5.705000000000000071e+00 5.903169072122798534e+05
5.737800000000000011e+00 6.162957929230151931e+05
5.770500000000000185e+00 6.414591559231677093e+05
5.803300000000000125e+00 6.640743455277906032e+05
5.836100000000000065e+00 6.837002042525323341e+05
5.868900000000000006e+00 7.013313391755681951e+05
5.901699999999999946e+00 7.186853540873249294e+05
5.934499999999999886e+00 7.366473604505329859e+05
5.967299999999999827e+00 7.533948314735976746e+05
6.000099999999999767e+00 7.657918340330737410e+05
6.032799999999999940e+00 7.719432966933812713e+05
6.065599999999999881e+00 7.720702109471180011e+05
6.098399999999999821e+00 7.675856507977817673e+05
6.131199999999999761e+00 7.601424671145991888e+05
6.163999999999999702e+00 7.505710572150537046e+05
6.196799999999999642e+00 7.394705132667047437e+05
6.229599999999999582e+00 7.274597226754364092e+05
6.262400000000000411e+00 7.149369600819551852e+05
6.295099999999999696e+00 7.032735158847195562e+05
6.327899999999999636e+00 6.940751786023351597e+05
6.360699999999999577e+00 6.879458654135548277e+05
6.393500000000000405e+00 6.846280786853625905e+05
6.426300000000000345e+00 6.836362945420739707e+05
6.459100000000000286e+00 6.841103497416533064e+05
6.491900000000000226e+00 6.851755384500857908e+05
6.524600000000000399e+00 6.867190793532815296e+05
6.557400000000000340e+00 6.892718054819946410e+05
6.590200000000000280e+00 6.929210909121254226e+05
6.623000000000000220e+00 6.972793685869331239e+05
6.655800000000000161e+00 7.025071565310857259e+05
6.688600000000000101e+00 7.084630306831357302e+05
6.721400000000000041e+00 7.134507811034130864e+05
6.754199999999999982e+00 7.152104858658486046e+05
6.786900000000000155e+00 7.132569025290228892e+05
6.819700000000000095e+00 7.085508789827175206e+05
6.852500000000000036e+00 7.017817275093299104e+05
6.885299999999999976e+00 6.925976350544077577e+05
6.918099999999999916e+00 6.803246692208203021e+05
6.950899999999999856e+00 6.650913274590901565e+05
6.983699999999999797e+00 6.477030535562102450e+05
7.016499999999999737e+00 6.294525933656027773e+05
7.049199999999999910e+00 6.113249042381087784e+05
7.081999999999999851e+00 5.939290020847093547e+05
7.114799999999999791e+00 5.778028422908358043e+05
7.147599999999999731e+00 5.635434773895748658e+05
7.180399999999999672e+00 5.514479606845437083e+05
7.213199999999999612e+00 5.415525412009066204e+05
7.246000000000000441e+00 5.337719731029850664e+05
7.278800000000000381e+00 5.279436769575042417e+05
7.311499999999999666e+00 5.236938870292349020e+05
7.344299999999999606e+00 5.207635349677248159e+05
7.377100000000000435e+00 5.190706096389675513e+05
7.409900000000000375e+00 5.186234273625109927e+05
7.442700000000000315e+00 5.196609139791478519e+05
7.475500000000000256e+00 5.230828982375415508e+05
7.508300000000000196e+00 5.303455498197175330e+05
7.541100000000000136e+00 5.419567837267372524e+05
7.573800000000000310e+00 5.572429942917502485e+05
7.606600000000000250e+00 5.756485558811211959e+05
7.639400000000000190e+00 5.970030886854182463e+05
7.672200000000000131e+00 6.209439261005289154e+05
7.705000000000000071e+00 6.462785366255326662e+05
7.737800000000000011e+00 6.714734541819503065e+05
7.770599999999999952e+00 6.956227018010795582e+05
7.803300000000000125e+00 7.181049115327026229e+05
7.836100000000000065e+00 7.380583943963466445e+05
7.868900000000000006e+00 7.545320973584271269e+05
7.901699999999999946e+00 7.675732627799197799e+05
7.934499999999999886e+00 7.784402294918119442e+05
7.967299999999999827e+00 7.884346134329927154e+05
8.000099999999999767e+00 7.983064172048479086e+05
8.032899999999999707e+00 8.085219668445135467e+05
8.065599999999999881e+00 8.197014301146101207e+05
8.098399999999999821e+00 8.326902436201530509e+05
8.131199999999999761e+00 8.470248545985954115e+05
8.163999999999999702e+00 8.605631163274717983e+05
8.196799999999999642e+00 8.714664516810080968e+05
8.229599999999999582e+00 8.789139622922866838e+05
8.262399999999999523e+00 8.824062373697861331e+05
8.295199999999999463e+00 8.819047716652352829e+05
8.327899999999999636e+00 8.779953167785888072e+05
8.360699999999999577e+00 8.722715832562713185e+05
8.393499999999999517e+00 8.666117698885344435e+05
8.426299999999999457e+00 8.623693064766552998e+05
8.459099999999999397e+00 8.593848650475459872e+05
8.491899999999999338e+00 8.563159340358889895e+05
8.524699999999999278e+00 8.526572556029875996e+05
8.557499999999999218e+00 8.495409184039735701e+05
8.590199999999999392e+00 8.479627021695933072e+05
8.622999999999999332e+00 8.471651749232988805e+05
8.655799999999999272e+00 8.467316702890784945e+05
8.688599999999999213e+00 8.480158522420076188e+05
8.721399999999999153e+00 8.510798049606193090e+05
8.754200000000000870e+00 8.534196855802648934e+05
8.787000000000000810e+00 8.529370603230472188e+05
8.819800000000000750e+00 8.496833219766834518e+05
8.852499999999999147e+00 8.444696848322579172e+05
8.885300000000000864e+00 8.384789308788239723e+05
8.918100000000000804e+00 8.328227854306984227e+05
8.950900000000000745e+00 8.271086228331361199e+05
8.983700000000000685e+00 8.197316662333272398e+05
9.016500000000000625e+00 8.103170238789299037e+05
9.049300000000000566e+00 8.006010260385030415e+05
9.082000000000000739e+00 7.932023682677785400e+05
9.114800000000000679e+00 7.895783587727266131e+05
9.147600000000000620e+00 7.894955910608966369e+05
9.180400000000000560e+00 7.919978625909001566e+05
9.213200000000000500e+00 7.958986466437757481e+05
9.246000000000000441e+00 8.001715673523955047e+05
9.278800000000000381e+00 8.043419096348830499e+05
9.311600000000000321e+00 8.089992500471175881e+05
9.344300000000000495e+00 8.141873294425063068e+05
9.377100000000000435e+00 8.192202436860930175e+05
9.409900000000000375e+00 8.240962506104387576e+05
9.442700000000000315e+00 8.291897665432585636e+05
9.475500000000000256e+00 8.348647869208599441e+05
9.508300000000000196e+00 8.413576118873815285e+05
9.541100000000000136e+00 8.480645967821284430e+05
9.573900000000000077e+00 8.529769041269008303e+05
9.606600000000000250e+00 8.533784945960063487e+05
9.639400000000000190e+00 8.483779007526803762e+05
9.672200000000000131e+00 8.397907145125857787e+05
9.705000000000000071e+00 8.305876392713061068e+05
9.737800000000000011e+00 8.230502602205185685e+05
9.770599999999999952e+00 8.178250508106680354e+05
9.803399999999999892e+00 8.142472678107308457e+05
9.836199999999999832e+00 8.106680508191467961e+05
9.868900000000000006e+00 8.054457236098367721e+05
9.901699999999999946e+00 7.983653690937922802e+05
9.934499999999999886e+00 7.917085695791960461e+05
9.967299999999999827e+00 7.883346184927193681e+05
1.000009999999999977e+01 7.884724246061742306e+05
1.003289999999999971e+01 7.887737670050382148e+05
1.006569999999999965e+01 7.858055249356916174e+05
1.009849999999999959e+01 7.790227611652632477e+05
1.013119999999999976e+01 7.698153514191797003e+05
1.016399999999999970e+01 7.601290094193544937e+05
1.019679999999999964e+01 7.523560560909116175e+05
1.022959999999999958e+01 7.486342741535386303e+05
1.026239999999999952e+01 7.492494332371009514e+05
1.029519999999999946e+01 7.520972371840517735e+05
1.032799999999999940e+01 7.543784591558516258e+05
1.036069999999999958e+01 7.545451778495090548e+05
1.039349999999999952e+01 7.528989043019085657e+05
1.042629999999999946e+01 7.505251771638737991e+05
1.045909999999999940e+01 7.489891132487152936e+05
1.049189999999999934e+01 7.502994927251955960e+05
1.052469999999999928e+01 7.558344080142044695e+05
1.055749999999999922e+01 7.653376949309005868e+05
1.059029999999999916e+01 7.765087326077950420e+05
1.062299999999999933e+01 7.870619613410833990e+05
1.065579999999999927e+01 7.960998215735598933e+05
1.068859999999999921e+01 8.036008768232873408e+05
1.072139999999999915e+01 8.102250249163160333e+05
1.075420000000000087e+01 8.162730931990783429e+05
1.078700000000000081e+01 8.211480401399625698e+05
1.081980000000000075e+01 8.252240360284012277e+05
1.085260000000000069e+01 8.300567786007331451e+05
1.088530000000000086e+01 8.358179943246650510e+05
1.091810000000000080e+01 8.421887503400766291e+05
1.095090000000000074e+01 8.487647233685458777e+05
1.098370000000000068e+01 8.543473781477207085e+05
1.101650000000000063e+01 8.570867929015853442e+05
1.104930000000000057e+01 8.558258019235986285e+05
1.108210000000000051e+01 8.514457973207535688e+05
1.111490000000000045e+01 8.461108791649045888e+05
1.114760000000000062e+01 8.412859500332368771e+05
1.118040000000000056e+01 8.363681878918304574e+05
1.121320000000000050e+01 8.302047344205373665e+05
1.124600000000000044e+01 8.218144512641332112e+05
1.127880000000000038e+01 8.109502595290589379e+05
1.131160000000000032e+01 7.979429907916961238e+05
1.134440000000000026e+01 7.835572526286108186e+05
1.137720000000000020e+01 7.689980389466359047e+05
1.140990000000000038e+01 7.556909514203909785e+05
1.144270000000000032e+01 7.445223985800330993e+05
1.147550000000000026e+01 7.351032851311219856e+05
1.150830000000000020e+01 7.262348250933722593e+05
1.154110000000000014e+01 7.178691803661320591e+05
1.157390000000000008e+01 7.111160242023139726e+05
1.160670000000000002e+01 7.062462902361641172e+05
1.163940000000000019e+01 7.024936910968371667e+05
1.167220000000000013e+01 6.988797503032467794e+05
1.170500000000000007e+01 6.944620655246091774e+05
1.173780000000000001e+01 6.892526625221273862e+05
1.177059999999999995e+01 6.838480887106214650e+05
1.180339999999999989e+01 6.793027068536621518e+05
1.183619999999999983e+01 6.764647369314747630e+05
1.186899999999999977e+01 6.752203066316703334e+05
1.190169999999999995e+01 6.739741092114967760e+05
1.193449999999999989e+01 6.707424094508509152e+05
1.196729999999999983e+01 6.647207551066245651e+05
1.200009999999999977e+01 6.562086871860942338e+05
1.203289999999999971e+01 6.447683195409751497e+05
1.206569999999999965e+01 6.307772815605038777e+05
1.209849999999999959e+01 6.166817461858304450e+05
1.213129999999999953e+01 6.055620312064002501e+05
1.216399999999999970e+01 5.983668609559552278e+05
1.219679999999999964e+01 5.937734676501771901e+05
1.222959999999999958e+01 5.900760289790689712e+05
1.226239999999999952e+01 5.868931037585882004e+05
1.229519999999999946e+01 5.856566212214813568e+05
1.232799999999999940e+01 5.879784734106592368e+05
1.236079999999999934e+01 5.927270922974790446e+05
1.239359999999999928e+01 5.971228286128054606e+05
1.242629999999999946e+01 5.996147646588507341e+05
1.245909999999999940e+01 6.019748580893783364e+05
1.249189999999999934e+01 6.091604328830407467e+05
1.252469999999999928e+01 6.240751008816267131e+05
1.255749999999999922e+01 6.436582014990434982e+05
1.259029999999999916e+01 6.606313798723892542e+05
1.262310000000000088e+01 6.693056280500959838e+05
1.265590000000000082e+01 6.706509735154303489e+05
1.268859999999999921e+01 6.706835549423701596e+05
1.272139999999999915e+01 6.727790227039799793e+05
1.275420000000000087e+01 6.755623960228540236e+05
1.278700000000000081e+01 6.770383116588039557e+05
1.281980000000000075e+01 6.762036289612952387e+05
1.285260000000000069e+01 6.732796181906706188e+05
1.288540000000000063e+01 6.709547138185298536e+05
1.291810000000000080e+01 6.723727580093300203e+05
1.295090000000000074e+01 6.788800517589267110e+05
1.298370000000000068e+01 6.899723508000659058e+05
1.301650000000000063e+01 7.038282845585942268e+05
1.304930000000000057e+01 7.190905909699064214e+05
