# energy(eV) alpha
0.000000000000000000e+00 0.000000000000000000e+00
3.239999999999999825e-02 8.427959245353774387e-01
6.479999999999999649e-02 3.265657695312262465e+00
9.719999999999999474e-02 7.426049650888313813e+00
1.295000000000000040e-01 1.304947901651635789e+01
1.618999999999999884e-01 2.052104365135541286e+01
1.943000000000000005e-01 2.967334659796213003e+01
2.267000000000000126e-01 4.031989141844079683e+01
2.590999999999999970e-01 5.301102283964987549e+01
2.914999999999999813e-01 6.719051736910270733e+01
3.239000000000000212e-01 8.304026146267423769e+01
3.563000000000000056e-01 1.011333102195262654e+02
3.886000000000000010e-01 1.206465982238915160e+02
4.209999999999999853e-01 1.422383377242744587e+02
4.534000000000000252e-01 1.659531040171293625e+02
4.858000000000000096e-01 1.910768575149939750e+02
5.181999999999999940e-01 2.183628179783785583e+02
5.505999999999999783e-01 2.474377200390831888e+02
5.829999999999999627e-01 2.797070519247994866e+02
6.153999999999999471e-01 3.134074929644520466e+02
6.477000000000000535e-01 3.494424619115036421e+02
6.801000000000000378e-01 3.879856008776071121e+02
7.125000000000000222e-01 4.290528885793323184e+02
7.449000000000000066e-01 4.721076553408678365e+02
7.772999999999999909e-01 5.183887305185660352e+02
8.096999999999999753e-01 5.667340518035852028e+02
8.420999999999999597e-01 6.191577057683784915e+02
8.743999999999999551e-01 6.743896620872477570e+02
9.068000000000000504e-01 7.326367054365204012e+02
9.392000000000000348e-01 7.938912722741379184e+02
9.716000000000000192e-01 8.581984955669479405e+02
1.004000000000000004e+00 9.272157020444349200e+02
1.036399999999999988e+00 9.994910938904288287e+02
1.068799999999999972e+00 1.076773488962517604e+03
1.101199999999999957e+00 1.157506958197855965e+03
1.133499999999999952e+00 1.242521159429931686e+03
1.165899999999999936e+00 1.334907373459570636e+03
1.198299999999999921e+00 1.431105387749030569e+03
1.230699999999999905e+00 1.533075005985188454e+03
1.263099999999999890e+00 1.641008136030446622e+03
1.295500000000000096e+00 1.756069998401159410e+03
1.327900000000000080e+00 1.877448845546561188e+03
1.360200000000000076e+00 2.008345837964239763e+03
1.392600000000000060e+00 2.146137344312885034e+03
1.425000000000000044e+00 2.293021061097049369e+03
1.457400000000000029e+00 2.451539745680109263e+03
1.489800000000000013e+00 2.620902363512358079e+03
1.522199999999999998e+00 2.801414918525645589e+03
1.554599999999999982e+00 2.996952511048500128e+03
1.586999999999999966e+00 3.206735718354215805e+03
1.619299999999999962e+00 3.432176795777278130e+03
1.651699999999999946e+00 3.679136187086671725e+03
1.684099999999999930e+00 3.945433675813927039e+03
1.716499999999999915e+00 4.238035845550008162e+03
1.748899999999999899e+00 4.556358688646680093e+03
1.781300000000000106e+00 4.907611270135968880e+03
1.813700000000000090e+00 5.298100770524703876e+03
1.846100000000000074e+00 5.730073230019344010e+03
1.878400000000000070e+00 6.218005444824903861e+03
1.910800000000000054e+00 6.765180871044590276e+03
1.943200000000000038e+00 7.390951467940262773e+03
1.975600000000000023e+00 8.111207127799169939e+03
2.008000000000000007e+00 8.949443436480700257e+03
2.040399999999999991e+00 9.938394133495186907e+03
2.072799999999999976e+00 1.112766691829876072e+04
2.105100000000000193e+00 1.257772264236422961e+04
2.137500000000000178e+00 1.439365670829813098e+04
2.169900000000000162e+00 1.671428052993500387e+04
2.202300000000000146e+00 1.974737219509371425e+04
2.234700000000000131e+00 2.375777154024556148e+04
2.267100000000000115e+00 2.903501656020069640e+04
2.299500000000000099e+00 3.585492036870733864e+04
2.331900000000000084e+00 4.438478420246879978e+04
2.364199999999999857e+00 5.462099915714265808e+04
2.396599999999999842e+00 6.619789816768578021e+04
2.428999999999999826e+00 7.769726833771145903e+04
2.461399999999999810e+00 8.696395084297269932e+04
2.493799999999999795e+00 9.236941341476826346e+04
2.526199999999999779e+00 9.465531640898993646e+04
2.558600000000000207e+00 9.656351223704499716e+04
2.591000000000000192e+00 9.891467358021825203e+04
2.623299999999999965e+00 1.000327603402757522e+05
2.655699999999999950e+00 9.920939105809279135e+04
2.688099999999999934e+00 9.814975806038969313e+04
2.720499999999999918e+00 9.869638576304247545e+04
2.752899999999999903e+00 1.011794677495432697e+05
2.785299999999999887e+00 1.050941251111092424e+05
2.817699999999999871e+00 1.099485136522250541e+05
2.850000000000000089e+00 1.154090523602555622e+05
2.882400000000000073e+00 1.211041040450714063e+05
2.914800000000000058e+00 1.263607673240609438e+05
2.947200000000000042e+00 1.304879457169425150e+05
2.979600000000000026e+00 1.334414913953691721e+05
3.012000000000000011e+00 1.359698581940154836e+05
3.044399999999999995e+00 1.388676001620883762e+05
3.076799999999999979e+00 1.426497773128018307e+05
3.109100000000000197e+00 1.473503553661143233e+05
3.141500000000000181e+00 1.527886757898097567e+05
3.173900000000000166e+00 1.589710247279080795e+05
3.206300000000000150e+00 1.660447367001817911e+05
3.238700000000000134e+00 1.739112348802902561e+05
3.271100000000000119e+00 1.826158024449156364e+05
3.303500000000000103e+00 1.927014207349357894e+05
3.335799999999999876e+00 2.043312712848642841e+05
3.368199999999999861e+00 2.167054370653125807e+05
3.400599999999999845e+00 2.290055467920773372e+05
3.432999999999999829e+00 2.415117227810426557e+05
3.465399999999999814e+00 2.550996694941479946e+05
3.497799999999999798e+00 2.699610861291505862e+05
3.530199999999999783e+00 2.855410403212069650e+05
3.562600000000000211e+00 3.010428350528411684e+05
3.594899999999999984e+00 3.162896518567819148e+05
3.627299999999999969e+00 3.317105865120323142e+05
3.659699999999999953e+00 3.471810440761114005e+05
3.692099999999999937e+00 3.626676381502017030e+05
3.724499999999999922e+00 3.785368719396755332e+05
3.756899999999999906e+00 3.946867150335955666e+05
3.789299999999999891e+00 4.100808849073646707e+05
3.821699999999999875e+00 4.232393569685238763e+05
3.854000000000000092e+00 4.330075993605980184e+05
3.886400000000000077e+00 4.388523373366518063e+05
3.918800000000000061e+00 4.414488598258461570e+05
3.951200000000000045e+00 4.424183035580919241e+05
3.983600000000000030e+00 4.429870155222149915e+05
4.016000000000000014e+00 4.433875692414787482e+05
4.048399999999999999e+00 4.435727412325310288e+05
4.080700000000000216e+00 4.436740041315605631e+05
4.113100000000000200e+00 4.437011812636599061e+05
4.145500000000000185e+00 4.438028908820647630e+05
4.177900000000000169e+00 4.443477622562667239e+05
4.210300000000000153e+00 4.452823142911030445e+05
4.242700000000000138e+00 4.464100464822051581e+05
4.275100000000000122e+00 4.480437311701677390e+05
4.307500000000000107e+00 4.507460677674252074e+05
4.339800000000000324e+00 4.543001329416988883e+05
4.372200000000000308e+00 4.577863431574065471e+05
4.404600000000000293e+00 4.606760481157135218e+05
4.437000000000000277e+00 4.627126586023592390e+05
4.469400000000000261e+00 4.637918348490733770e+05
4.501800000000000246e+00 4.645741366145600914e+05
4.534200000000000230e+00 4.662511636371196364e+05
4.566499999999999559e+00 4.692379785095608677e+05
4.598900000000000432e+00 4.734158600652752211e+05
4.631300000000000416e+00 4.785788152568246587e+05
4.663700000000000401e+00 4.841201076447759406e+05
4.696100000000000385e+00 4.890882426695267204e+05
4.728500000000000369e+00 4.925442008009224664e+05
4.760900000000000354e+00 4.942142835253911326e+05
4.793300000000000338e+00 4.946081312571163289e+05
4.825599999999999667e+00 4.945962508629284566e+05
4.857999999999999652e+00 4.951890015645790263e+05
4.890399999999999636e+00 4.971930319727307651e+05
4.922799999999999621e+00 5.006056474329114426e+05
4.955199999999999605e+00 5.043148523203713703e+05
4.987599999999999589e+00 5.069124020838876604e+05
5.019999999999999574e+00 5.072158491157062235e+05
5.052399999999999558e+00 5.045897107731078286e+05
5.084699999999999775e+00 4.992225606991105014e+05
5.117099999999999760e+00 4.916986531386681017e+05
5.149499999999999744e+00 4.826047989263301715e+05
5.181899999999999729e+00 4.730287286926111556e+05
5.214299999999999713e+00 4.638736510045710020e+05
5.246699999999999697e+00 4.551208136145406752e+05
5.279099999999999682e+00 4.465282840355727240e+05
5.311399999999999899e+00 4.385646385944896610e+05
5.343799999999999883e+00 4.318661348716864013e+05
5.376199999999999868e+00 4.265520494047325337e+05
5.408599999999999852e+00 4.225583538884776062e+05
5.440999999999999837e+00 4.196775333805372356e+05
5.473399999999999821e+00 4.175476843862684909e+05
5.505799999999999805e+00 4.159926914163425681e+05
5.538199999999999790e+00 4.150627987818160327e+05
5.570500000000000007e+00 4.146926655684650759e+05
5.602899999999999991e+00 4.145472112559493980e+05
5.635299999999999976e+00 4.140906589406274143e+05
5.667699999999999960e+00 4.131752151750021148e+05
5.700099999999999945e+00 4.123194922060847748e+05
5.732499999999999929e+00 4.123176300148710143e+05
5.764899999999999913e+00 4.137267760871026549e+05
5.797299999999999898e+00 4.166953833820862346e+05
5.829600000000000115e+00 4.210175211461735307e+05
5.862000000000000099e+00 4.264947903054794879e+05
5.894400000000000084e+00 4.331598388861814165e+05
5.926800000000000068e+00 4.414255846899030148e+05
5.959200000000000053e+00 4.518931559803345590e+05
5.991600000000000037e+00 4.649863231920020771e+05
6.024000000000000021e+00 4.806568473059717799e+05
6.056300000000000239e+00 4.981502946122883004e+05
6.088700000000000223e+00 5.162158508940521278e+05
6.121100000000000207e+00 5.337158100659364136e+05
6.153500000000000192e+00 5.503176667202224489e+05
6.185900000000000176e+00 5.663285243696743855e+05
6.218300000000000161e+00 5.819381783345532604e+05
6.250700000000000145e+00 5.963848465522972401e+05
6.283100000000000129e+00 6.088642078465952072e+05
6.315400000000000347e+00 6.196724985317380633e+05
6.347800000000000331e+00 6.298046564199622953e+05
6.380200000000000315e+00 6.396841906490069814e+05
6.412600000000000300e+00 6.490594220593441278e+05
6.445000000000000284e+00 6.574729263340717880e+05
6.477400000000000269e+00 6.645594912005269434e+05
6.509800000000000253e+00 6.707147915934495395e+05
6.542099999999999582e+00 6.770247341801367002e+05
6.574499999999999567e+00 6.842228039485908812e+05
6.606900000000000439e+00 6.918615665755983209e+05
6.639300000000000423e+00 6.989722356681621168e+05
6.671700000000000408e+00 7.049096594004252693e+05
6.704100000000000392e+00 7.093183527817329159e+05
6.736500000000000377e+00 7.123026803683961043e+05
6.768900000000000361e+00 7.147400670548074413e+05
6.801199999999999690e+00 7.173533991470362525e+05
6.833599999999999675e+00 7.202007302002164070e+05
6.865999999999999659e+00 7.229900103631532984e+05
6.898399999999999643e+00 7.253707788568390533e+05
6.930799999999999628e+00 7.269723670184981311e+05
6.963199999999999612e+00 7.278565172608707799e+05
6.995599999999999596e+00 7.283898166619436815e+05
7.027999999999999581e+00 7.287921503912658663e+05
7.060299999999999798e+00 7.291400545575832948e+05
7.092699999999999783e+00 7.296759546826487640e+05
7.125099999999999767e+00 7.309061519982455065e+05
7.157499999999999751e+00 7.333471440252907341e+05
7.189899999999999736e+00 7.366645688510406762e+05
7.222299999999999720e+00 7.400447164765782654e+05
7.254699999999999704e+00 7.433532907856833190e+05
7.286999999999999922e+00 7.470282603389106225e+05
7.319399999999999906e+00 7.513332199691376882e+05
7.351799999999999891e+00 7.559175311977266101e+05
7.384199999999999875e+00 7.603057405967869563e+05
7.416599999999999859e+00 7.645279051195698557e+05
7.448999999999999844e+00 7.687027358609176008e+05
7.481399999999999828e+00 7.727409108408951433e+05
7.513799999999999812e+00 7.768969219075712608e+05
7.546100000000000030e+00 7.818732869906778214e+05
7.578500000000000014e+00 7.880938600367824547e+05
7.610899999999999999e+00 7.953286752969758818e+05
7.643299999999999983e+00 8.027977585985797923e+05
7.675699999999999967e+00 8.093824413200445706e+05
7.708099999999999952e+00 8.142700853508127620e+05
7.740499999999999936e+00 8.177448531715277350e+05
7.772899999999999920e+00 8.210601931973722531e+05
7.805200000000000138e+00 8.254157083645898383e+05
7.837600000000000122e+00 8.310983172413862776e+05
7.870000000000000107e+00 8.377902178336377256e+05
7.902400000000000091e+00 8.450822191161832307e+05
7.934800000000000075e+00 8.523827220015247585e+05
7.967200000000000060e+00 8.591554589680440258e+05
7.999600000000000044e+00 8.655044462954159826e+05
8.031900000000000261e+00 8.722280850476315245e+05
8.064299999999999358e+00 8.797785101344228024e+05
8.096700000000000230e+00 8.874892369698035764e+05
8.129099999999999326e+00 8.942344990735533647e+05
8.161500000000000199e+00 8.992479946182249114e+05
8.193899999999999295e+00 9.024129315296737477e+05
8.226300000000000168e+00 9.043018096956046065e+05
8.258699999999999264e+00 9.054058972408022964e+05
8.291000000000000369e+00 9.060282930642397841e+05
8.323399999999999466e+00 9.066554495131715667e+05
8.355800000000000338e+00 9.076270693798057036e+05
8.388199999999999434e+00 9.089107550320924493e+05
8.420600000000000307e+00 9.104298796225261176e+05
8.452999999999999403e+00 9.122049677532061469e+05
8.485400000000000276e+00 9.143016837845033733e+05
8.517699999999999605e+00 9.168424938632766716e+05
8.550100000000000477e+00 9.200532662158258026e+05
8.582499999999999574e+00 9.240538014289257117e+05
8.614900000000000446e+00 9.285219206181349000e+05
8.647299999999999542e+00 9.330115975158608053e+05
8.679700000000000415e+00 9.371202659926109482e+05
8.712099999999999511e+00 9.404717362434638198e+05
8.744500000000000384e+00 9.428591469081325922e+05
8.776799999999999713e+00 9.442114240380075062e+05
8.809200000000000585e+00 9.448187872055742191e+05
8.841599999999999682e+00 9.450806063294064952e+05
8.874000000000000554e+00 9.452639756683381274e+05
8.906399999999999650e+00 9.454782164420430781e+05
8.938800000000000523e+00 9.455408552041647490e+05
8.971199999999999619e+00 9.452418575166150695e+05
9.003600000000000492e+00 9.446674945710573811e+05
9.035899999999999821e+00 9.438856826083596097e+05
9.068300000000000693e+00 9.426985331560517661e+05
9.100699999999999790e+00 9.405710917133420007e+05
9.133100000000000662e+00 9.371893031721460866e+05
9.165499999999999758e+00 9.326663307052933378e+05
9.197900000000000631e+00 9.274492129717619391e+05
9.230299999999999727e+00 9.220036603461380582e+05
9.262600000000000833e+00 9.166719526205905713e+05
9.294999999999999929e+00 9.116257796886696015e+05
9.327400000000000801e+00 9.067403259920954006e+05
9.359799999999999898e+00 9.021467730414110702e+05
9.392200000000000770e+00 8.979228185012264876e+05
9.424599999999999866e+00 8.942617621480438393e+05
9.457000000000000739e+00 8.913649783356757835e+05
9.489399999999999835e+00 8.890398674519401975e+05
9.521699999999999164e+00 8.870585572618994629e+05
9.554100000000000037e+00 8.854987902739578858e+05
9.586499999999999133e+00 8.843934981188384118e+05
9.618900000000000006e+00 8.835699115657152142e+05
9.651300000000000878e+00 8.826833153862013714e+05
9.683699999999999974e+00 8.816485806340614799e+05
9.716100000000000847e+00 8.804480813772312831e+05
9.748400000000000176e+00 8.786155432093786076e+05
9.780799999999999272e+00 8.763004850881318562e+05
9.813200000000000145e+00 8.743879231513713021e+05
9.845599999999999241e+00 8.734610017296242295e+05
9.878000000000000114e+00 8.730108838716049213e+05
9.910399999999999210e+00 8.715415047732614912e+05
9.942800000000000082e+00 8.679504096938367002e+05
9.975199999999999179e+00 8.627098676673074951e+05
1.000750000000000028e+01 8.573070241801610682e+05
1.003989999999999938e+01 8.530903543193208752e+05
1.007230000000000025e+01 8.506241938374467427e+05
1.010469999999999935e+01 8.495076898491397733e+05
1.013710000000000022e+01 8.491991066291657044e+05
1.016949999999999932e+01 8.495424313977427082e+05
1.020190000000000019e+01 8.501916399233508855e+05
1.023429999999999929e+01 8.504910170333929127e+05
1.026660000000000039e+01 8.504632663987609558e+05
1.029899999999999949e+01 8.507857344787983457e+05
1.033140000000000036e+01 8.515390489562129369e+05
1.036379999999999946e+01 8.524309304402003763e+05
1.039620000000000033e+01 8.532614878217253136e+05
1.042859999999999943e+01 8.540752567268906860e+05
1.046100000000000030e+01 8.547694494374415372e+05
1.049329999999999963e+01 8.551517352335593896e+05
1.052570000000000050e+01 8.550707383077010745e+05
1.055809999999999960e+01 8.543855578557533445e+05
1.059050000000000047e+01 8.531719750529869925e+05
1.062289999999999957e+01 8.512837862974032760e+05
1.065530000000000044e+01 8.487392720062341541e+05
1.068769999999999953e+01 8.454192169692156604e+05
1.072010000000000041e+01 8.408589360197080532e+05
1.075239999999999974e+01 8.351442378528786357e+05
1.078480000000000061e+01 8.287062663371332455e+05
1.081719999999999970e+01 8.213580255804236513e+05
1.084960000000000058e+01 8.124138860124927014e+05
1.088199999999999967e+01 8.022680043940080795e+05
1.091440000000000055e+01 7.917267171252812259e+05
1.094679999999999964e+01 7.810865367285571992e+05
1.097920000000000051e+01 7.705974942785962485e+05
1.101149999999999984e+01 7.608464609158736421e+05
1.104390000000000072e+01 7.525291702938368544e+05
1.107629999999999981e+01 7.460244846186406212e+05
1.110870000000000068e+01 7.414046568834247300e+05
1.114109999999999978e+01 7.384494713913891464e+05
1.117350000000000065e+01 7.366720109132361831e+05
1.120589999999999975e+01 7.355489705579209840e+05
1.123820000000000086e+01 7.346669039910580032e+05
1.127059999999999995e+01 7.339736170190628618e+05
1.130300000000000082e+01 7.335672076277263695e+05
1.133539999999999992e+01 7.334450522857481847e+05
1.136780000000000079e+01 7.332016678327223053e+05
1.140019999999999989e+01 7.324985052221632795e+05
1.143260000000000076e+01 7.315354975120938616e+05
1.146499999999999986e+01 7.309072928345979890e+05
1.149729999999999919e+01 7.307627980748241534e+05
1.152970000000000006e+01 7.306900887392649893e+05
1.156209999999999916e+01 7.305806388520620530e+05
1.159450000000000003e+01 7.305216836017103633e+05
1.162689999999999912e+01 7.305541415853747167e+05
1.165930000000000000e+01 7.310730674656123156e+05
1.169170000000000087e+01 7.323599202216734411e+05
1.172400000000000020e+01 7.343774242397302296e+05
1.175639999999999930e+01 7.370634101384629030e+05
1.178880000000000017e+01 7.404124818301490741e+05
1.182119999999999926e+01 7.440823799278986407e+05
1.185360000000000014e+01 7.475733446666534292e+05
1.188599999999999923e+01 7.502568064631588059e+05
1.191840000000000011e+01 7.517359888411830179e+05
1.195079999999999920e+01 7.524406248056311160e+05
1.198310000000000031e+01 7.533375815596299944e+05
1.201549999999999940e+01 7.547812451790041523e+05
1.204790000000000028e+01 7.560029420571364462e+05
1.208029999999999937e+01 7.559549519297070801e+05
1.211270000000000024e+01 7.542837255527777597e+05
1.214509999999999934e+01 7.520411267846019473e+05
1.217750000000000021e+01 7.511484666444908362e+05
1.220989999999999931e+01 7.534417515499015572e+05
1.224220000000000041e+01 7.595946672028151806e+05
1.227459999999999951e+01 7.692239824173790403e+05
1.230700000000000038e+01 7.809967063145384891e+05
1.233939999999999948e+01 7.929062860981684644e+05
1.237180000000000035e+01 8.029842191784247989e+05
1.240419999999999945e+01 8.105783079179343767e+05
1.243660000000000032e+01 8.163638645447344752e+05
1.246889999999999965e+01 8.209971797699860763e+05
1.250130000000000052e+01 8.248877370020481758e+05
1.253369999999999962e+01 8.280416726869011763e+05
1.256610000000000049e+01 8.301246990302617196e+05
1.259849999999999959e+01 8.304922464572443860e+05
1.263090000000000046e+01 8.286934353962461464e+05
1.266329999999999956e+01 8.249059045198879903e+05
1.269570000000000043e+01 8.198304552908958867e+05
1.272799999999999976e+01 8.142923808108761441e+05
1.276040000000000063e+01 8.091435868510998553e+05
1.279279999999999973e+01 8.048537445894188713e+05
1.282520000000000060e+01 8.009756065160669386e+05
1.285759999999999970e+01 7.969271996098606614e+05
1.289000000000000057e+01 7.926104654247838771e+05
