# energy(eV) alpha
0.000000000000000000e+00 0.000000000000000000e+00
3.209999999999999659e-02 5.277168947522066222e-01
6.429999999999999605e-02 2.058438836236083702e+00
9.639999999999999958e-02 4.670503919067375165e+00
1.285999999999999921e-01 8.232459297201803139e+00
1.607000000000000095e-01 1.278825376484772747e+01
1.927999999999999992e-01 1.850865727382466730e+01
2.250000000000000056e-01 2.548735197556988297e+01
2.570999999999999952e-01 3.311874672107344963e+01
2.893000000000000016e-01 4.200940872728767062e+01
3.214000000000000190e-01 5.193597778470244464e+01
3.534999999999999809e-01 6.290977669886888890e+01
3.856999999999999873e-01 7.528162128576988721e+01
4.178000000000000047e-01 8.837379777505678646e+01
4.500000000000000111e-01 1.029182424813780017e+02
4.820999999999999730e-01 1.185353349956655080e+02
5.141999999999999904e-01 1.352441306194605488e+02
5.463999999999999968e-01 1.530706627123274188e+02
5.785000000000000142e-01 1.724542344359994104e+02
6.107000000000000206e-01 1.924814132339896844e+02
6.428000000000000380e-01 2.141110448056533926e+02
6.749000000000000554e-01 2.374523035011741001e+02
7.070999999999999508e-01 2.607945186367624046e+02
7.391999999999999682e-01 2.864405888497175852e+02
7.713999999999999746e-01 3.132995613812420856e+02
8.034999999999999920e-01 3.419754474517962990e+02
8.356000000000000094e-01 3.718696300625030631e+02
8.678000000000000158e-01 4.037621481727528590e+02
8.999000000000000332e-01 4.361012430165253022e+02
9.321000000000000396e-01 4.704846477961260689e+02
9.641999999999999460e-01 5.060673296752847818e+02
9.962999999999999634e-01 5.437401904107576911e+02
1.028499999999999970e+00 5.836330567657320216e+02
1.060599999999999987e+00 6.238987084943676109e+02
1.092799999999999994e+00 6.682855810715810776e+02
1.124900000000000011e+00 7.130746638077184798e+02
1.157000000000000028e+00 7.602099391668589305e+02
1.189200000000000035e+00 8.098198910865637572e+02
1.221300000000000052e+00 8.597707320921517749e+02
1.253500000000000059e+00 9.132906951170519960e+02
1.285600000000000076e+00 9.693009023632926073e+02
1.317800000000000082e+00 1.026902392529074177e+03
1.349900000000000100e+00 1.088204656131220190e+03
1.381999999999999895e+00 1.151084437656275895e+03
1.414199999999999902e+00 1.216813365103783099e+03
1.446299999999999919e+00 1.286495118580696953e+03
1.478499999999999925e+00 1.357958674049339606e+03
1.510599999999999943e+00 1.432261618155200040e+03
1.542699999999999960e+00 1.510847009899470322e+03
1.574899999999999967e+00 1.593953398480349733e+03
1.606999999999999984e+00 1.678802599090125341e+03
1.639199999999999990e+00 1.766956765501892050e+03
1.671300000000000008e+00 1.861034821895953201e+03
1.703400000000000025e+00 1.958485030685698121e+03
1.735600000000000032e+00 2.060933688136351520e+03
1.767700000000000049e+00 2.168239639018824619e+03
1.799900000000000055e+00 2.279271269269831919e+03
1.832000000000000073e+00 2.396808852873704382e+03
1.864100000000000090e+00 2.519656148091994055e+03
1.896300000000000097e+00 2.648006849022143797e+03
1.928399999999999892e+00 2.784861804581815704e+03
1.960599999999999898e+00 2.925911203918601586e+03
1.992699999999999916e+00 3.075754956141410730e+03
2.024799999999999933e+00 3.233074322454438516e+03
2.056999999999999940e+00 3.399859224228875064e+03
2.089100000000000179e+00 3.574273592937131070e+03
2.121300000000000185e+00 3.760179928309826209e+03
2.153399999999999981e+00 3.954029936264905700e+03
2.185500000000000220e+00 4.163064160623146563e+03
2.217699999999999783e+00 4.380735819097433705e+03
2.249800000000000022e+00 4.612084789885755526e+03
2.282000000000000028e+00 4.859574163130641864e+03
2.314099999999999824e+00 5.123075823720580047e+03
2.346200000000000063e+00 5.403007895270208792e+03
2.378400000000000070e+00 5.703600806503119202e+03
2.410499999999999865e+00 6.022746369495587714e+03
2.442699999999999871e+00 6.368864410020248215e+03
2.474800000000000111e+00 6.739795764032744046e+03
2.506899999999999906e+00 7.136125339967709806e+03
2.539099999999999913e+00 7.568202344575905045e+03
2.571200000000000152e+00 8.037787326093112824e+03
2.603400000000000158e+00 8.547761734591524146e+03
2.635499999999999954e+00 9.101969795935307047e+03
2.667600000000000193e+00 9.714985379022027701e+03
2.699800000000000200e+00 1.038772075024836522e+04
2.731899999999999995e+00 1.113182826108895824e+04
2.764100000000000001e+00 1.196289250440752949e+04
2.796199999999999797e+00 1.289458699026840077e+04
2.828300000000000036e+00 1.394617715776643854e+04
2.860500000000000043e+00 1.514722611705761847e+04
2.892599999999999838e+00 1.652782905840456806e+04
2.924799999999999844e+00 1.814064697061448896e+04
2.956900000000000084e+00 2.004645062443298957e+04
2.988999999999999879e+00 2.234054401122171112e+04
3.021199999999999886e+00 2.514945636230932723e+04
3.053300000000000125e+00 2.865735584660228778e+04
3.085500000000000131e+00 3.311229047365309816e+04
3.117599999999999927e+00 3.882386167487088096e+04
3.149700000000000166e+00 4.608441340719200525e+04
3.181900000000000173e+00 5.505934659839779488e+04
3.213999999999999968e+00 6.580887882156846172e+04
3.246199999999999974e+00 7.824244631090723851e+04
3.278300000000000214e+00 9.191344065675203456e+04
3.310400000000000009e+00 1.063226412064718170e+05
3.342600000000000016e+00 1.213169793134686042e+05
3.374699999999999811e+00 1.371122398265730008e+05
3.406899999999999817e+00 1.541947776367758343e+05
3.439000000000000057e+00 1.726806234265476232e+05
3.471099999999999852e+00 1.915841702171699726e+05
3.503299999999999859e+00 2.093925382065405138e+05
3.535400000000000098e+00 2.253131858853276644e+05
3.567600000000000104e+00 2.401447262021807546e+05
3.599699999999999900e+00 2.550085711454795965e+05
3.631800000000000139e+00 2.702577694609977189e+05
3.664000000000000146e+00 2.857798807084828732e+05
3.696099999999999941e+00 3.012565898243294214e+05
3.728299999999999947e+00 3.159543458022636478e+05
3.760400000000000187e+00 3.287232161533883191e+05
3.792600000000000193e+00 3.385476424806768191e+05
3.824699999999999989e+00 3.448064284650583286e+05
3.856799999999999784e+00 3.479231586992605007e+05
3.888999999999999790e+00 3.490509853760431288e+05
3.921100000000000030e+00 3.491963563281110255e+05
3.953300000000000036e+00 3.492025637331519392e+05
3.985399999999999832e+00 3.495860486594508984e+05
4.017500000000000071e+00 3.504321898371931748e+05
4.049699999999999633e+00 3.515523447421468445e+05
4.081800000000000317e+00 3.528847163843378075e+05
4.113999999999999879e+00 3.549099433948773658e+05
4.146099999999999675e+00 3.578941890540624736e+05
4.178200000000000358e+00 3.615506405023136758e+05
4.210399999999999920e+00 3.655532289611060405e+05
4.242499999999999716e+00 3.697740438287346624e+05
4.274700000000000166e+00 3.743239067724692868e+05
4.306799999999999962e+00 3.791921065415934427e+05
4.338899999999999757e+00 3.838341633718612720e+05
4.371100000000000207e+00 3.877927816181349335e+05
4.403200000000000003e+00 3.913292631498686969e+05
4.435399999999999565e+00 3.951984295448440243e+05
4.467500000000000249e+00 4.001151355795739219e+05
4.499600000000000044e+00 4.067710962480371236e+05
4.531799999999999606e+00 4.157347721423849580e+05
4.563900000000000290e+00 4.269124895648943493e+05
4.596099999999999852e+00 4.391126214522571536e+05
4.628199999999999648e+00 4.503303317070608609e+05
4.660300000000000331e+00 4.594254201692551724e+05
4.692499999999999893e+00 4.664518487849898520e+05
4.724599999999999689e+00 4.718185458738775342e+05
4.756800000000000139e+00 4.763317152169019100e+05
4.788899999999999935e+00 4.811487769438577816e+05
4.820999999999999730e+00 4.871492899925405509e+05
4.853200000000000180e+00 4.938025226719533093e+05
4.885299999999999976e+00 4.993792642367358203e+05
4.917500000000000426e+00 5.028680813207529136e+05
4.949600000000000222e+00 5.042464565016941051e+05
4.981700000000000017e+00 5.036622200260894024e+05
5.013899999999999579e+00 5.011264412314596702e+05
5.046000000000000263e+00 4.968205468347310089e+05
5.078199999999999825e+00 4.909907140766815864e+05
5.110299999999999621e+00 4.839709944119323045e+05
5.142400000000000304e+00 4.768833655633124872e+05
5.174599999999999866e+00 4.710038510908963508e+05
5.206699999999999662e+00 4.665109741689065122e+05
5.238900000000000112e+00 4.628948645446774899e+05
5.270999999999999908e+00 4.595939697775194654e+05
5.303099999999999703e+00 4.563256877362703090e+05
5.335300000000000153e+00 4.532502057354860008e+05
5.367399999999999949e+00 4.506489647283576196e+05
5.399600000000000399e+00 4.487019620489025838e+05
5.431700000000000195e+00 4.476217521242157090e+05
5.463799999999999990e+00 4.474794224970068899e+05
5.496000000000000441e+00 4.482157228250100161e+05
5.528100000000000236e+00 4.500639774487645482e+05
5.560299999999999798e+00 4.534138911429021973e+05
5.592399999999999594e+00 4.581207237302477588e+05
5.624500000000000277e+00 4.635623361472099787e+05
5.656699999999999839e+00 4.692402884958836366e+05
5.688799999999999635e+00 4.748643675175068784e+05
5.721000000000000085e+00 4.800730340577152092e+05
5.753099999999999881e+00 4.845528192616738961e+05
5.785199999999999676e+00 4.885835525462375372e+05
5.817400000000000126e+00 4.929645051973346272e+05
5.849499999999999922e+00 4.983717848563096486e+05
5.881700000000000372e+00 5.050503069378238288e+05
5.913800000000000168e+00 5.127216868259367766e+05
5.945899999999999963e+00 5.212928445630131173e+05
5.978100000000000414e+00 5.312887258867220953e+05
6.010200000000000209e+00 5.430350153924493352e+05
6.042399999999999771e+00 5.559122254388995934e+05
6.074499999999999567e+00 5.689700758003984811e+05
6.106700000000000017e+00 5.818626005118066678e+05
6.138799999999999812e+00 5.947110290137699340e+05
6.170899999999999608e+00 6.075804297221230809e+05
6.203100000000000058e+00 6.203279349402179942e+05
6.235199999999999854e+00 6.326936047914135270e+05
6.267400000000000304e+00 6.443534332319092937e+05
6.299500000000000099e+00 6.550292561504981713e+05
6.331599999999999895e+00 6.646481352558521321e+05
6.363800000000000345e+00 6.729995006054511759e+05
6.395900000000000141e+00 6.799319843613071134e+05
6.428099999999999703e+00 6.858034938280140050e+05
6.460200000000000387e+00 6.910868534439729992e+05
6.492300000000000182e+00 6.963579663214673055e+05
6.524499999999999744e+00 7.020119296225612052e+05
6.556600000000000428e+00 7.079690483529908815e+05
6.588799999999999990e+00 7.138145076868042815e+05
6.620899999999999785e+00 7.190979079801397165e+05
6.652999999999999581e+00 7.236833987922702217e+05
6.685200000000000031e+00 7.275664902188107371e+05
6.717299999999999827e+00 7.307966071470797760e+05
6.749500000000000277e+00 7.335136766489802394e+05
6.781600000000000072e+00 7.354282969990487909e+05
6.813699999999999868e+00 7.361287063955938211e+05
6.845900000000000318e+00 7.356096743303072872e+05
6.878000000000000114e+00 7.341366544762471458e+05
6.910199999999999676e+00 7.319087235351881245e+05
6.942300000000000360e+00 7.290982406441658968e+05
6.974400000000000155e+00 7.259478542082308559e+05
7.006599999999999717e+00 7.224780823153099045e+05
7.038700000000000401e+00 7.189164763639711309e+05
7.070899999999999963e+00 7.158182632712181658e+05
7.102999999999999758e+00 7.132716375727569684e+05
7.135100000000000442e+00 7.113895999971886631e+05
7.167300000000000004e+00 7.108679426932656206e+05
7.199399999999999800e+00 7.125793438052640995e+05
7.231600000000000250e+00 7.165436597554014297e+05
7.263700000000000045e+00 7.217678547506494215e+05
7.295799999999999841e+00 7.270919585994658992e+05
7.328000000000000291e+00 7.319229099603190552e+05
7.360100000000000087e+00 7.363630154573937180e+05
7.392299999999999649e+00 7.409281842665285803e+05
7.424400000000000333e+00 7.460185710324860411e+05
7.456500000000000128e+00 7.517763728894998785e+05
7.488699999999999690e+00 7.581110761450233404e+05
7.520800000000000374e+00 7.646877168511691270e+05
7.552999999999999936e+00 7.710981523820227012e+05
7.585099999999999731e+00 7.771251749869253254e+05
7.617200000000000415e+00 7.829473791898154886e+05
7.649399999999999977e+00 7.887318702599287499e+05
7.681499999999999773e+00 7.942025552698248066e+05
7.713700000000000223e+00 7.992586559787160950e+05
7.745800000000000018e+00 8.043015422412168700e+05
7.777899999999999814e+00 8.098039867389230058e+05
7.810100000000000264e+00 8.156620025155468611e+05
7.842200000000000060e+00 8.213938935079274233e+05
7.874399999999999622e+00 8.269754652808834799e+05
7.906500000000000306e+00 8.326370002531737555e+05
7.938600000000000101e+00 8.383880162217293400e+05
7.970799999999999663e+00 8.438417383762027603e+05
8.002900000000000347e+00 8.486405608500471571e+05
8.035099999999999909e+00 8.528208658375587547e+05
8.067199999999999704e+00 8.564654213116583414e+05
8.099299999999999500e+00 8.594391546888814773e+05
8.131500000000000838e+00 8.615427397304085316e+05
8.163600000000000634e+00 8.627481456054459559e+05
8.195800000000000196e+00 8.631441208380350145e+05
8.227899999999999991e+00 8.625720711695478531e+05
8.259999999999999787e+00 8.613273022004027152e+05
8.292199999999999349e+00 8.603963311579360161e+05
8.324299999999999145e+00 8.606277656325499993e+05
8.356500000000000483e+00 8.621729572607948212e+05
8.388600000000000279e+00 8.644545389020660659e+05
8.420700000000000074e+00 8.669192774722309550e+05
8.452899999999999636e+00 8.695678740723707015e+05
8.484999999999999432e+00 8.727211553255390609e+05
8.517200000000000770e+00 8.764298499361368595e+05
8.549300000000000566e+00 8.803395543454671279e+05
8.581500000000000128e+00 8.842491743942003231e+05
8.613599999999999923e+00 8.880615615355077898e+05
8.645699999999999719e+00 8.914845803134326125e+05
8.677899999999999281e+00 8.941066721397629008e+05
8.710000000000000853e+00 8.958616216226146789e+05
8.742200000000000415e+00 8.972501622765129432e+05
8.774300000000000210e+00 8.985530176704834448e+05
8.806400000000000006e+00 8.995275623658356490e+05
8.838599999999999568e+00 8.998278678946656873e+05
8.870699999999999363e+00 8.994717265380725730e+05
8.902900000000000702e+00 8.986765551787231816e+05
8.935000000000000497e+00 8.976819342836671276e+05
8.967100000000000293e+00 8.968408688001361443e+05
8.999299999999999855e+00 8.961796274181531044e+05
9.031399999999999650e+00 8.953689219405921176e+05
9.063599999999999213e+00 8.937421844039437128e+05
9.095700000000000784e+00 8.908480180942857405e+05
9.127800000000000580e+00 8.868968150900661713e+05
9.160000000000000142e+00 8.824377210249407217e+05
9.192099999999999937e+00 8.778212833364540711e+05
9.224299999999999500e+00 8.732076264535160735e+05
9.256399999999999295e+00 8.689285021789624589e+05
9.288500000000000867e+00 8.651948699223166332e+05
9.320700000000000429e+00 8.621043306739091640e+05
9.352800000000000225e+00 8.595578817742925603e+05
9.384999999999999787e+00 8.574880180020104162e+05
9.417099999999999582e+00 8.557248846046774415e+05
9.449199999999999378e+00 8.539815935964337550e+05
9.481400000000000716e+00 8.520068665724209277e+05
9.513500000000000512e+00 8.497333942821251694e+05
9.545700000000000074e+00 8.474929436135835713e+05
9.577799999999999869e+00 8.453009300755755976e+05
9.609899999999999665e+00 8.429336774791316129e+05
9.642099999999999227e+00 8.400158843768780353e+05
9.674200000000000799e+00 8.360280204530041665e+05
9.706400000000000361e+00 8.310332997065318050e+05
9.738500000000000156e+00 8.257458399326452054e+05
9.770599999999999952e+00 8.208778412003166741e+05
9.802799999999999514e+00 8.164855032493671170e+05
9.834899999999999309e+00 8.125631483410957735e+05
9.867100000000000648e+00 8.091615370590566890e+05
9.899200000000000443e+00 8.060666994489106582e+05
9.931300000000000239e+00 8.027055318897977704e+05
9.963499999999999801e+00 7.989219110745325452e+05
9.995599999999999596e+00 7.954041012921915390e+05
1.002779999999999916e+01 7.934037098664196674e+05
1.005990000000000073e+01 7.935828680695813382e+05
1.009200000000000053e+01 7.956242958528901218e+05
1.012420000000000009e+01 7.989354792790435022e+05
1.015629999999999988e+01 8.030191391363868024e+05
1.018849999999999945e+01 8.072953142216205597e+05
1.022059999999999924e+01 8.115334654305207077e+05
1.025270000000000081e+01 8.158195161557648098e+05
1.028490000000000038e+01 8.201597940818890929e+05
1.031700000000000017e+01 8.241896893956285203e+05
1.034919999999999973e+01 8.274618579384901095e+05
1.038129999999999953e+01 8.300896920912546339e+05
1.041339999999999932e+01 8.325718728725822875e+05
1.044560000000000066e+01 8.351060968819874106e+05
1.047770000000000046e+01 8.373128727294758428e+05
1.050990000000000002e+01 8.387122248292689910e+05
1.054199999999999982e+01 8.386519969741121167e+05
1.057409999999999961e+01 8.369477234071774874e+05
1.060629999999999917e+01 8.336328547201707261e+05
1.063840000000000074e+01 8.283988989346595481e+05
1.067060000000000031e+01 8.211137728370188270e+05
1.070270000000000010e+01 8.120385565660001012e+05
1.073479999999999990e+01 8.014769981662754435e+05
1.076699999999999946e+01 7.898443858279936248e+05
1.079909999999999926e+01 7.778125965093498817e+05
1.083130000000000059e+01 7.656716512424496468e+05
1.086340000000000039e+01 7.536233594003996113e+05
1.089550000000000018e+01 7.422200974718438229e+05
1.092769999999999975e+01 7.321123743066618918e+05
1.095979999999999954e+01 7.235072774988077581e+05
1.099200000000000088e+01 7.164675085505791940e+05
1.102410000000000068e+01 7.108790883323391899e+05
1.105630000000000024e+01 7.067239186726366170e+05
1.108840000000000003e+01 7.040072436941952910e+05
1.112049999999999983e+01 7.026708327208843548e+05
1.115269999999999939e+01 7.025180394758678740e+05
1.118479999999999919e+01 7.031766185701374197e+05
1.121700000000000053e+01 7.042961077598592965e+05
1.124910000000000032e+01 7.055317670893635368e+05
1.128120000000000012e+01 7.066992079725250369e+05
1.131339999999999968e+01 7.074351985447974876e+05
1.134549999999999947e+01 7.073014723754620645e+05
1.137770000000000081e+01 7.060998410284740385e+05
1.140980000000000061e+01 7.040878438173317118e+05
1.144190000000000040e+01 7.017988942305081291e+05
1.147409999999999997e+01 6.998723913423755439e+05
1.150619999999999976e+01 6.985490069285503123e+05
1.153839999999999932e+01 6.976197318581808358e+05
1.157049999999999912e+01 6.970394816410001367e+05
1.160260000000000069e+01 6.967838570467231330e+05
1.163480000000000025e+01 6.971578651854943018e+05
1.166690000000000005e+01 6.986860692590168910e+05
1.169909999999999961e+01 7.013918900248709833e+05
1.173119999999999941e+01 7.047259201697857352e+05
1.176329999999999920e+01 7.080677338275172515e+05
1.179550000000000054e+01 7.111490430405554362e+05
1.182760000000000034e+01 7.140398493333912920e+05
1.185979999999999990e+01 7.166144959319493501e+05
1.189189999999999969e+01 7.185055300889321370e+05
1.192399999999999949e+01 7.198107189164072042e+05
1.195620000000000083e+01 7.209647765862925444e+05
1.198830000000000062e+01 7.222418169032544829e+05
1.202050000000000018e+01 7.238368756706739077e+05
1.205259999999999998e+01 7.257098013080912642e+05
1.208469999999999978e+01 7.276380797377419658e+05
1.211689999999999934e+01 7.295194569479839411e+05
1.214899999999999913e+01 7.316438972253929824e+05
1.218120000000000047e+01 7.348270002516623354e+05
1.221330000000000027e+01 7.395954900381602347e+05
1.224540000000000006e+01 7.458946304746920941e+05
1.227759999999999962e+01 7.532938755850926973e+05
1.230969999999999942e+01 7.611549624848266831e+05
1.234190000000000076e+01 7.686137311515895417e+05
1.237400000000000055e+01 7.751608414125661366e+05
1.240610000000000035e+01 7.810530662221406819e+05
1.243829999999999991e+01 7.864351530991418986e+05
1.247039999999999971e+01 7.910179933717020322e+05
1.250259999999999927e+01 7.949278939581302693e+05
1.253470000000000084e+01 7.981899880311577581e+05
1.256680000000000064e+01 8.005079371936002281e+05
1.259900000000000020e+01 8.015212712908462854e+05
1.263109999999999999e+01 8.012712312186014606e+05
1.266329999999999956e+01 8.002737737580160610e+05
1.269539999999999935e+01 7.987378793416388799e+05
1.272749999999999915e+01 7.966406718526575714e+05
1.275970000000000049e+01 7.937397448878041469e+05
1.279180000000000028e+01 7.899103264549927553e+05
