# energy(eV) alpha
0.000000000000000000e+00 0.000000000000000000e+00
3.180000000000000188e-02 9.281771565613824437e-01
6.370000000000000662e-02 3.818811399859942224e+00
9.550000000000000155e-02 8.511538303686398521e+00
1.272999999999999965e-01 1.515887171143145018e+01
1.590999999999999914e-01 2.370873075790014894e+01
1.910000000000000031e-01 3.417680420687228349e+01
2.227999999999999980e-01 4.670314108458869384e+01
2.545999999999999930e-01 6.097326668612195988e+01
2.864999999999999769e-01 7.738657832418330429e+01
3.183000000000000274e-01 9.596211945830462753e+01
3.501000000000000223e-01 1.167941807212680487e+02
3.820000000000000062e-01 1.393872933348580148e+02
4.138000000000000012e-01 1.642418090327019229e+02
4.455999999999999961e-01 1.914569577860818868e+02
4.773999999999999910e-01 2.207274061295794922e+02
5.092999999999999750e-01 2.524902328300251213e+02
5.411000000000000254e-01 2.867180582290633879e+02
5.728999999999999648e-01 3.235195816375583604e+02
6.048000000000000043e-01 3.630179345757151168e+02
6.366000000000000547e-01 4.046582103369137826e+02
6.683999999999999941e-01 4.500518816175796246e+02
7.003000000000000336e-01 4.972917336352541611e+02
7.320999999999999730e-01 5.478609991320372501e+02
7.639000000000000234e-01 6.025491924512092510e+02
7.956999999999999629e-01 6.590849135764283346e+02
8.276000000000000023e-01 7.193841817818610025e+02
8.594000000000000528e-01 7.840752341080562928e+02
8.911999999999999922e-01 8.527356241661535705e+02
9.231000000000000316e-01 9.241590399394517590e+02
9.548999999999999710e-01 1.001072975458457904e+03
9.867000000000000215e-01 1.081537652349155906e+03
1.018599999999999950e+00 1.167280907712957287e+03
1.050400000000000000e+00 1.258248617709770997e+03
1.082200000000000051e+00 1.353893307286057279e+03
1.114000000000000101e+00 1.456023347364490974e+03
1.145899999999999919e+00 1.563231295653067491e+03
1.177699999999999969e+00 1.678059143280266653e+03
1.209500000000000020e+00 1.799057598309353580e+03
1.241400000000000059e+00 1.928416346658103066e+03
1.273200000000000109e+00 2.066100125238806413e+03
1.304999999999999938e+00 2.211537885578854002e+03
1.336899999999999977e+00 2.367072881901778601e+03
1.368700000000000028e+00 2.533715436935458001e+03
1.400500000000000078e+00 2.709890006275434644e+03
1.432299999999999907e+00 2.901121461959157841e+03
1.464199999999999946e+00 3.103788731355279197e+03
1.495999999999999996e+00 3.322139581534273020e+03
1.527800000000000047e+00 3.557958771322073972e+03
1.559700000000000086e+00 3.810830801575822534e+03
1.591499999999999915e+00 4.085341343629877883e+03
1.623299999999999965e+00 4.383535194104030779e+03
1.655200000000000005e+00 4.706223306672109175e+03
1.687000000000000055e+00 5.059587333863092681e+03
1.718800000000000106e+00 5.447045114442244994e+03
1.750599999999999934e+00 5.870721834515868068e+03
1.782499999999999973e+00 6.340538329716870066e+03
1.814300000000000024e+00 6.862013182451695684e+03
1.846100000000000074e+00 7.446902043839704675e+03
1.877999999999999892e+00 8.102095967399398432e+03
1.909799999999999942e+00 8.842565565286417041e+03
1.941599999999999993e+00 9.688945076280875583e+03
1.973500000000000032e+00 1.066635126300957381e+04
2.005300000000000082e+00 1.180142236355958084e+04
2.037100000000000133e+00 1.314190852592287047e+04
2.068900000000000183e+00 1.474529038314040736e+04
2.100800000000000001e+00 1.669660775677401762e+04
2.132600000000000051e+00 1.911701475001014478e+04
2.164400000000000102e+00 2.218396764649839315e+04
2.196299999999999919e+00 2.617247186741681071e+04
2.228099999999999969e+00 3.148687183002564052e+04
2.259900000000000020e+00 3.872064317283024138e+04
2.291799999999999837e+00 4.856482536651278497e+04
2.323599999999999888e+00 6.140674384505472699e+04
2.355399999999999938e+00 7.648233172141517571e+04
2.387199999999999989e+00 9.198190624951173959e+04
2.419099999999999806e+00 1.069736865952713561e+05
2.450899999999999856e+00 1.213877704460807290e+05
2.482699999999999907e+00 1.331419023100478807e+05
2.514600000000000168e+00 1.401652276250116993e+05
2.546400000000000219e+00 1.440446679083876952e+05
2.578199999999999825e+00 1.467399409667856526e+05
2.610100000000000087e+00 1.475591144782752090e+05
2.641900000000000137e+00 1.455229749446945498e+05
2.673700000000000188e+00 1.413714807423656748e+05
2.705499999999999794e+00 1.373637651241328276e+05
2.737400000000000055e+00 1.358020996514243598e+05
2.769200000000000106e+00 1.377978408579213719e+05
2.801000000000000156e+00 1.434798999512885057e+05
2.832899999999999974e+00 1.523889959817209456e+05
2.864700000000000024e+00 1.632899047447663615e+05
2.896500000000000075e+00 1.748441761370025633e+05
2.928399999999999892e+00 1.864833761202637688e+05
2.960199999999999942e+00 1.980994938065647439e+05
2.991999999999999993e+00 2.091622524612284033e+05
3.023800000000000043e+00 2.187740744238444022e+05
3.055699999999999861e+00 2.265380449962168350e+05
3.087499999999999911e+00 2.329932288855827937e+05
3.119299999999999962e+00 2.391429822307291033e+05
3.151199999999999779e+00 2.454299028767679411e+05
3.182999999999999829e+00 2.517646533478768251e+05
3.214799999999999880e+00 2.581789268155504251e+05
3.246700000000000141e+00 2.648751546433652402e+05
3.278500000000000192e+00 2.720346875593580189e+05
3.310299999999999798e+00 2.802734292474832037e+05
3.342099999999999849e+00 2.899765774628537474e+05
3.374000000000000110e+00 3.004624100955366739e+05
3.405800000000000161e+00 3.103913841532756924e+05
3.437600000000000211e+00 3.193626525835567736e+05
3.469500000000000028e+00 3.284443016317058355e+05
3.501300000000000079e+00 3.386955152347298572e+05
3.533100000000000129e+00 3.501801944755510776e+05
3.564999999999999947e+00 3.620789011339636636e+05
3.596799999999999997e+00 3.736832618492153706e+05
3.628600000000000048e+00 3.850146220470658154e+05
3.660400000000000098e+00 3.957724631746946252e+05
3.692299999999999915e+00 4.050607944933121908e+05
3.724099999999999966e+00 4.125910929452965502e+05
3.755900000000000016e+00 4.191331210481144371e+05
3.787799999999999834e+00 4.255727873889310868e+05
3.819599999999999884e+00 4.322116571280843928e+05
3.851399999999999935e+00 4.390155649208750110e+05
3.883300000000000196e+00 4.457411341150904773e+05
3.915099999999999802e+00 4.521080303149549291e+05
3.946899999999999853e+00 4.580113240197965060e+05
3.978699999999999903e+00 4.636690928526127245e+05
4.010600000000000165e+00 4.694438868525534053e+05
4.042399999999999771e+00 4.751274454097879934e+05
4.074200000000000266e+00 4.796631100347120082e+05
4.106099999999999639e+00 4.819725436506067053e+05
4.137900000000000134e+00 4.823030536204835516e+05
4.169699999999999740e+00 4.819466274009870249e+05
4.201600000000000001e+00 4.817128803006613161e+05
4.233399999999999608e+00 4.815981165790978121e+05
4.265200000000000102e+00 4.812374624489221023e+05
4.296999999999999709e+00 4.799448395573486923e+05
4.328899999999999970e+00 4.767959997838076088e+05
4.360699999999999577e+00 4.712367377207480604e+05
4.392500000000000071e+00 4.638041370779686258e+05
4.424400000000000333e+00 4.555335226592982654e+05
4.456199999999999939e+00 4.473853344690340455e+05
4.488000000000000433e+00 4.403655744781972026e+05
4.519899999999999807e+00 4.349168368198292446e+05
4.551700000000000301e+00 4.306501154995254474e+05
4.583499999999999908e+00 4.270909016559530282e+05
4.615300000000000402e+00 4.241476000727589708e+05
4.647199999999999775e+00 4.219450836956364219e+05
4.679000000000000270e+00 4.200388073735219077e+05
4.710799999999999876e+00 4.181763974135701428e+05
4.742700000000000138e+00 4.170682241048173164e+05
4.774499999999999744e+00 4.175680986146858195e+05
4.806300000000000239e+00 4.199833907728053164e+05
4.838199999999999612e+00 4.238660022081926581e+05
4.870000000000000107e+00 4.281878026224678615e+05
4.901799999999999713e+00 4.320694553331267089e+05
4.933600000000000207e+00 4.351999853236317285e+05
4.965499999999999581e+00 4.373715670476857922e+05
4.997300000000000075e+00 4.381216254924063687e+05
5.029099999999999682e+00 4.372070684442439815e+05
5.060999999999999943e+00 4.348367456356661278e+05
5.092800000000000438e+00 4.312181855261129094e+05
5.124600000000000044e+00 4.267262340833529597e+05
5.156500000000000306e+00 4.222885309337988729e+05
5.188299999999999912e+00 4.187978585202926188e+05
5.220100000000000406e+00 4.164222261555091245e+05
5.251900000000000013e+00 4.149983646273040795e+05
5.283800000000000274e+00 4.149775127059893566e+05
5.315599999999999881e+00 4.175551543556057150e+05
5.347400000000000375e+00 4.238335357034701155e+05
5.379299999999999748e+00 4.343904325277606840e+05
5.411100000000000243e+00 4.495185878530301852e+05
5.442899999999999849e+00 4.691260303084489424e+05
5.474800000000000111e+00 4.923868924367610016e+05
5.506599999999999717e+00 5.180147405896972632e+05
5.538400000000000212e+00 5.442764563628159231e+05
5.570199999999999818e+00 5.679242125808941200e+05
5.602100000000000080e+00 5.839844576581125148e+05
5.633899999999999686e+00 5.883282939534226898e+05
5.665700000000000180e+00 5.803805758814540459e+05
5.697600000000000442e+00 5.630243168588945409e+05
5.729400000000000048e+00 5.408634842690228252e+05
5.761199999999999655e+00 5.178394128452417208e+05
5.793099999999999916e+00 4.960634887410324882e+05
5.824900000000000411e+00 4.764144614725061692e+05
5.856700000000000017e+00 4.595269073595318478e+05
5.888499999999999623e+00 4.459963074937259662e+05
5.920399999999999885e+00 4.361550831918527256e+05
5.952200000000000379e+00 4.297754559697206714e+05
5.983999999999999986e+00 4.261109174622612773e+05
6.015900000000000247e+00 4.245450325793816010e+05
6.047699999999999854e+00 4.249703679418103420e+05
6.079500000000000348e+00 4.274347716999536497e+05
6.111399999999999721e+00 4.319014997156364261e+05
6.143200000000000216e+00 4.381445627841489040e+05
6.174999999999999822e+00 4.458483586489753798e+05
6.206800000000000317e+00 4.547919008964431705e+05
6.238699999999999690e+00 4.649667020780482562e+05
6.270500000000000185e+00 4.763190613087814418e+05
6.302299999999999791e+00 4.887726703542065225e+05
6.334200000000000053e+00 5.023005589818336302e+05
6.365999999999999659e+00 5.169575043878183351e+05
6.397800000000000153e+00 5.326813642807814758e+05
6.429700000000000415e+00 5.491026284888705704e+05
6.461500000000000021e+00 5.658630793260948267e+05
6.493299999999999628e+00 5.828241013628633227e+05
6.525100000000000122e+00 5.997692486010601278e+05
6.557000000000000384e+00 6.161445988496280042e+05
6.588799999999999990e+00 6.309994684330073651e+05
6.620599999999999596e+00 6.438444106397228315e+05
6.652499999999999858e+00 6.552348775589676807e+05
6.684300000000000352e+00 6.662118791098687798e+05
6.716099999999999959e+00 6.775732149184941081e+05
6.748000000000000220e+00 6.893306487588436576e+05
6.779799999999999827e+00 7.010897140190195059e+05
6.811600000000000321e+00 7.123563728574919514e+05
6.843399999999999928e+00 7.224946740225080866e+05
6.875300000000000189e+00 7.311894493698664010e+05
6.907099999999999795e+00 7.385697558253139723e+05
6.938900000000000290e+00 7.450767745098662563e+05
6.970799999999999663e+00 7.510640673877769150e+05
7.002600000000000158e+00 7.567058755151005462e+05
7.034399999999999764e+00 7.624140666561668040e+05
7.066300000000000026e+00 7.687204318243244197e+05
7.098099999999999632e+00 7.754886218146017054e+05
7.129900000000000126e+00 7.821817130105700344e+05
7.161699999999999733e+00 7.884476390136317350e+05
7.193599999999999994e+00 7.944188583534569480e+05
7.225399999999999601e+00 8.004645214868865442e+05
7.257200000000000095e+00 8.068116476361225359e+05
7.289100000000000357e+00 8.132501545169994934e+05
7.320899999999999963e+00 8.191621125023053028e+05
7.352699999999999569e+00 8.242127836104989983e+05
7.384599999999999831e+00 8.282946952058519237e+05
7.416400000000000325e+00 8.313322843064031331e+05
7.448199999999999932e+00 8.332907795468244003e+05
7.480000000000000426e+00 8.343331136364673730e+05
7.511899999999999800e+00 8.349238958694471512e+05
7.543700000000000294e+00 8.355138883030005964e+05
7.575499999999999901e+00 8.362132383195268922e+05
7.607400000000000162e+00 8.370423217086174991e+05
7.639199999999999768e+00 8.379411479727820260e+05
7.671000000000000263e+00 8.389654032554500736e+05
7.702899999999999636e+00 8.404641723490039585e+05
7.734700000000000131e+00 8.424372127521381481e+05
7.766499999999999737e+00 8.443805336608113721e+05
7.798300000000000232e+00 8.460536130700175418e+05
7.830199999999999605e+00 8.477002755610032473e+05
7.862000000000000099e+00 8.496138157900631195e+05
7.893799999999999706e+00 8.521852438588071382e+05
7.925699999999999967e+00 8.555092454208618728e+05
7.957499999999999574e+00 8.593224531652291771e+05
7.989300000000000068e+00 8.634663176539159613e+05
8.021200000000000330e+00 8.679335522369011305e+05
8.053000000000000824e+00 8.723172035913006403e+05
8.084799999999999542e+00 8.761958106924090534e+05
8.116600000000000037e+00 8.794506091203943361e+05
8.148500000000000298e+00 8.821153444253108464e+05
8.180300000000000793e+00 8.843993557993475115e+05
8.212099999999999511e+00 8.864902555886436021e+05
8.243999999999999773e+00 8.881557098476678366e+05
8.275800000000000267e+00 8.888736373608553549e+05
8.307600000000000762e+00 8.888946818193543004e+05
8.339499999999999247e+00 8.890868384402985685e+05
8.371299999999999741e+00 8.898056593350301264e+05
8.403100000000000236e+00 8.908817400682931766e+05
8.434900000000000730e+00 8.922294478374723112e+05
8.466799999999999216e+00 8.942694555930672213e+05
8.498599999999999710e+00 8.975164131733009126e+05
8.530400000000000205e+00 9.023194153827495174e+05
8.562300000000000466e+00 9.087784009229380172e+05
8.594099999999999184e+00 9.169003442856424954e+05
8.625899999999999679e+00 9.276034516218609642e+05
8.657799999999999940e+00 9.429642930575601058e+05
8.689600000000000435e+00 9.647932795566098066e+05
8.721399999999999153e+00 9.925809593827381032e+05
8.753199999999999648e+00 1.022051555755909998e+06
8.785099999999999909e+00 1.045564840885426383e+06
8.816900000000000404e+00 1.057092620717860525e+06
8.848699999999999122e+00 1.056720506851515500e+06
8.880599999999999383e+00 1.049350334122790955e+06
8.912399999999999878e+00 1.039951702781087020e+06
8.944200000000000372e+00 1.031243511881975690e+06
8.976100000000000634e+00 1.023884026802279754e+06
9.007899999999999352e+00 1.017828872929676203e+06
9.039699999999999847e+00 1.012856801536527695e+06
9.071500000000000341e+00 1.008583309776587761e+06
9.103400000000000603e+00 1.004719464546304778e+06
9.135199999999999321e+00 1.001364954810367082e+06
9.166999999999999815e+00 9.990115385074742371e+05
9.198900000000000077e+00 9.979117136655452196e+05
9.230700000000000571e+00 9.976227604712223401e+05
9.262499999999999289e+00 9.977709989813301945e+05
9.294399999999999551e+00 9.982694603434745222e+05
9.326200000000000045e+00 9.988785289199433755e+05
9.358000000000000540e+00 9.989361985166742234e+05
9.389799999999999258e+00 9.979074687225262169e+05
9.421699999999999520e+00 9.956682868751026690e+05
9.453500000000000014e+00 9.924781927260203520e+05
9.485300000000000509e+00 9.887780928230691934e+05
9.517200000000000770e+00 9.851609368605924537e+05
9.548999999999999488e+00 9.822928944258564152e+05
9.580799999999999983e+00 9.809593533923940267e+05
9.612700000000000244e+00 9.812362270544777857e+05
9.644500000000000739e+00 9.814564056918962160e+05
9.676299999999999457e+00 9.799206741090480937e+05
9.708099999999999952e+00 9.763256143435979029e+05
9.740000000000000213e+00 9.712897784206737997e+05
9.771800000000000708e+00 9.653782971085873432e+05
9.803599999999999426e+00 9.587646017677010968e+05
9.835499999999999687e+00 9.520080592834001873e+05
9.867300000000000182e+00 9.464934689149499172e+05
9.899100000000000676e+00 9.431441523946310626e+05
9.930999999999999162e+00 9.411474163392033661e+05
9.962799999999999656e+00 9.389144003096584929e+05
9.994600000000000151e+00 9.351964164066642988e+05
1.002640000000000065e+01 9.296767788208890706e+05
1.005829999999999913e+01 9.229106823414997198e+05
1.009009999999999962e+01 9.157096706464659655e+05
1.012190000000000012e+01 9.083463907985549886e+05
1.015380000000000038e+01 9.010664298342025140e+05
1.018560000000000088e+01 8.944769183234591037e+05
1.021739999999999959e+01 8.890680306845365558e+05
1.024929999999999986e+01 8.850071493519927608e+05
1.028110000000000035e+01 8.817590979834732134e+05
1.031290000000000084e+01 8.786059269324778579e+05
1.034469999999999956e+01 8.753935380661680829e+05
1.037659999999999982e+01 8.723657663444004720e+05
1.040840000000000032e+01 8.700573485772794811e+05
1.044020000000000081e+01 8.685736995957345935e+05
1.047209999999999930e+01 8.673952953062356682e+05
1.050389999999999979e+01 8.657703501937867841e+05
1.053570000000000029e+01 8.636023989759350661e+05
1.056760000000000055e+01 8.613588386279284023e+05
1.059939999999999927e+01 8.591509697235225467e+05
1.063119999999999976e+01 8.567948858921491774e+05
1.066300000000000026e+01 8.545395872046217555e+05
1.069490000000000052e+01 8.528803110886939103e+05
1.072669999999999924e+01 8.513745185951231979e+05
1.075849999999999973e+01 8.487413441433787812e+05
1.079039999999999999e+01 8.442879118998025078e+05
1.082220000000000049e+01 8.388242733778447146e+05
1.085399999999999920e+01 8.337145595502179349e+05
1.088589999999999947e+01 8.296778055871641263e+05
1.091769999999999996e+01 8.266243697104684543e+05
1.094950000000000045e+01 8.237613491312550614e+05
1.098129999999999917e+01 8.204731200735350139e+05
1.101319999999999943e+01 8.165194920090637170e+05
1.104499999999999993e+01 8.116648316953437170e+05
1.107680000000000042e+01 8.059466333915875293e+05
1.110870000000000068e+01 7.998570856981712859e+05
1.114049999999999940e+01 7.943064867541431449e+05
1.117229999999999990e+01 7.898895898068868555e+05
1.120420000000000016e+01 7.867009577825949527e+05
1.123600000000000065e+01 7.845326606431934051e+05
1.126779999999999937e+01 7.833618774480316788e+05
1.129959999999999987e+01 7.828581798674673773e+05
1.133150000000000013e+01 7.824889764503323240e+05
1.136330000000000062e+01 7.822652155018890044e+05
1.139509999999999934e+01 7.827189804978265893e+05
1.142699999999999960e+01 7.843386105685594957e+05
1.145880000000000010e+01 7.869392796564321034e+05
1.149060000000000059e+01 7.901290467563862912e+05
1.152250000000000085e+01 7.938581057126283413e+05
1.155429999999999957e+01 7.976986212339506019e+05
1.158610000000000007e+01 8.007629052163043525e+05
1.161790000000000056e+01 8.028003728893558728e+05
1.164980000000000082e+01 8.038551673588067060e+05
1.168159999999999954e+01 8.036345014568959596e+05
1.171340000000000003e+01 8.019061083925062558e+05
1.174530000000000030e+01 7.986987979089427972e+05
1.177710000000000079e+01 7.941272295633770991e+05
1.180889999999999951e+01 7.885488271329184063e+05
1.184079999999999977e+01 7.825503417725694599e+05
1.187260000000000026e+01 7.768431688095451100e+05
1.190440000000000076e+01 7.719530344781756867e+05
1.193619999999999948e+01 7.679047911917807069e+05
1.196809999999999974e+01 7.645001738803433254e+05
1.199990000000000023e+01 7.616627582672846038e+05
1.203170000000000073e+01 7.592765651973494096e+05
1.206359999999999921e+01 7.571004840989117511e+05
1.209539999999999971e+01 7.546468620524532162e+05
1.212720000000000020e+01 7.516617400109845912e+05
1.215910000000000046e+01 7.483126844549172092e+05
1.219089999999999918e+01 7.448403888363537844e+05
1.222269999999999968e+01 7.415956247168780537e+05
1.225450000000000017e+01 7.392778058716988890e+05
1.228640000000000043e+01 7.382836764604795026e+05
1.231819999999999915e+01 7.383649062262710650e+05
1.234999999999999964e+01 7.387659501212039031e+05
1.238189999999999991e+01 7.390111074840555666e+05
1.241370000000000040e+01 7.389487666719779372e+05
1.244549999999999912e+01 7.386419818514593644e+05
1.247739999999999938e+01 7.384250011427409481e+05
1.250919999999999987e+01 7.386578745136884972e+05
1.254100000000000037e+01 7.397019213179585058e+05
1.257280000000000086e+01 7.414974770280639641e+05
1.260469999999999935e+01 7.442450546843466582e+05
1.263649999999999984e+01 7.478292895933332620e+05
1.266830000000000034e+01 7.516420456994872075e+05
