# energy(eV) alpha
0.000000000000000000e+00 0.000000000000000000e+00
3.169999999999999901e-02 8.710359247958443518e-01
6.350000000000000089e-02 3.438097934265007538e+00
9.520000000000000684e-02 7.692401180770070290e+00
1.270000000000000018e-01 1.364653388054628813e+01
1.587000000000000077e-01 2.140823692090941321e+01
1.904000000000000137e-01 3.090671431218163789e+01
2.222000000000000086e-01 4.197933772522782192e+01
2.539000000000000146e-01 5.512644803312421971e+01
2.857000000000000095e-01 6.984696069581787015e+01
3.174000000000000155e-01 8.678263261960694308e+01
3.492000000000000104e-01 1.052896257919287279e+02
3.809000000000000163e-01 1.261502492414128795e+02
4.126000000000000223e-01 1.482092870058478695e+02
4.444000000000000172e-01 1.731372610301152690e+02
4.761000000000000232e-01 1.999310133340940183e+02
5.079000000000000181e-01 2.286636130359891013e+02
5.395999999999999686e-01 2.592402038083371849e+02
5.713000000000000300e-01 2.921552638838402345e+02
6.030999999999999694e-01 3.280115545498607048e+02
6.348000000000000309e-01 3.658280108270087680e+02
6.665999999999999703e-01 4.062374369971319652e+02
6.983000000000000318e-01 4.486258769726586024e+02
7.300999999999999712e-01 4.948588525435450265e+02
7.618000000000000327e-01 5.437982726162283598e+02
7.934999999999999831e-01 5.955622357802691340e+02
8.253000000000000336e-01 6.502896380108342100e+02
8.569999999999999840e-01 7.078837955301160036e+02
8.888000000000000345e-01 7.699720949318411840e+02
9.204999999999999849e-01 8.351268643150800699e+02
9.522000000000000464e-01 9.034703263510141369e+02
9.839999999999999858e-01 9.767114827701681179e+02
1.015700000000000047e+00 1.054052633592402344e+03
1.047500000000000098e+00 1.135803453813481383e+03
1.079199999999999937e+00 1.222702831292408291e+03
1.110899999999999999e+00 1.315048096296724680e+03
1.142700000000000049e+00 1.413131528628462320e+03
1.174400000000000110e+00 1.515953380373734262e+03
1.206199999999999939e+00 1.625757949582841547e+03
1.237900000000000000e+00 1.742490868757899307e+03
1.269700000000000051e+00 1.867654942036966077e+03
1.301399999999999890e+00 1.999193073424581826e+03
1.333099999999999952e+00 2.141538999588346542e+03
1.364900000000000002e+00 2.292065695199127731e+03
1.396600000000000064e+00 2.453863260118124799e+03
1.428399999999999892e+00 2.626547100541334203e+03
1.460099999999999953e+00 2.811162941890151615e+03
1.491800000000000015e+00 3.011615481983882546e+03
1.523600000000000065e+00 3.227462290781774300e+03
1.555299999999999905e+00 3.461073293102665502e+03
1.587099999999999955e+00 3.712144633979953142e+03
1.618800000000000017e+00 3.988010774751612644e+03
1.650600000000000067e+00 4.288574004113326737e+03
1.682299999999999907e+00 4.616459156339822584e+03
1.713999999999999968e+00 4.977723746649993700e+03
1.745800000000000018e+00 5.378641722859480069e+03
1.777500000000000080e+00 5.823442238814480334e+03
1.809299999999999908e+00 6.321753979235796578e+03
1.840999999999999970e+00 6.883448265041120067e+03
1.872700000000000031e+00 7.520985956457662724e+03
1.904500000000000082e+00 8.252717573479609200e+03
1.936199999999999921e+00 9.098953663080015758e+03
1.967999999999999972e+00 1.009182272788389491e+04
1.999700000000000033e+00 1.126934615006280001e+04
2.031499999999999861e+00 1.269476494059415563e+04
2.063200000000000145e+00 1.444872266454304918e+04
2.094899999999999984e+00 1.665369188810005653e+04
2.126700000000000035e+00 1.949945337323766580e+04
2.158399999999999874e+00 2.326713193699589829e+04
2.190199999999999925e+00 2.836961913857093532e+04
2.221900000000000208e+00 3.533167682742118632e+04
2.253600000000000048e+00 4.453679861444645212e+04
2.285400000000000098e+00 5.555448733847464609e+04
2.317099999999999937e+00 6.670019860857466119e+04
2.348899999999999988e+00 7.630017554278262833e+04
2.380599999999999827e+00 8.451233481943205697e+04
2.412300000000000111e+00 9.247784374263184145e+04
2.444100000000000161e+00 1.001640787816511001e+05
2.475800000000000001e+00 1.066008981223188894e+05
2.507600000000000051e+00 1.113603741123094514e+05
2.539299999999999891e+00 1.149217793660731113e+05
2.571099999999999941e+00 1.174862531880722527e+05
2.602799999999999780e+00 1.184930497741208092e+05
2.634500000000000064e+00 1.177020892856393621e+05
2.666300000000000114e+00 1.159153050589767372e+05
2.697999999999999954e+00 1.149960354063698032e+05
2.729800000000000004e+00 1.164617172391781205e+05
2.761499999999999844e+00 1.205712796399395884e+05
2.793200000000000127e+00 1.269257161095757474e+05
2.825000000000000178e+00 1.350347894791341096e+05
2.856700000000000017e+00 1.443859178319895000e+05
2.888500000000000068e+00 1.543074148629115953e+05
2.920199999999999907e+00 1.640397434442014201e+05
2.951999999999999957e+00 1.732150501310268592e+05
2.983699999999999797e+00 1.818676342753753415e+05
3.015400000000000080e+00 1.900612358418422227e+05
3.047200000000000131e+00 1.975219461491953116e+05
3.078899999999999970e+00 2.037647019402289588e+05
3.110700000000000021e+00 2.085689652999212558e+05
3.142399999999999860e+00 2.120552823152754863e+05
3.174100000000000144e+00 2.146384356893442164e+05
3.205900000000000194e+00 2.168039112668303424e+05
3.237600000000000033e+00 2.190643693963764235e+05
3.269400000000000084e+00 2.221459849995796394e+05
3.301099999999999923e+00 2.268638761093376670e+05
3.332800000000000207e+00 2.336499888503218244e+05
3.364599999999999813e+00 2.421149824898502266e+05
3.396300000000000097e+00 2.514822101523186720e+05
3.428100000000000147e+00 2.612490279441823077e+05
3.459799999999999986e+00 2.711526078626304516e+05
3.491600000000000037e+00 2.810219604608960799e+05
3.523299999999999876e+00 2.909018351376219071e+05
3.555000000000000160e+00 3.010004503235162119e+05
3.586800000000000210e+00 3.113241941479623783e+05
3.618500000000000050e+00 3.215530302095827647e+05
3.650300000000000100e+00 3.313459177331393003e+05
3.681999999999999940e+00 3.405786613540926483e+05
3.713699999999999779e+00 3.492084048038277542e+05
3.745499999999999829e+00 3.572164161503484938e+05
3.777200000000000113e+00 3.646278288038256578e+05
3.809000000000000163e+00 3.714931019186048652e+05
3.840700000000000003e+00 3.777027171151564689e+05
3.872500000000000053e+00 3.833034159329429385e+05
3.904199999999999893e+00 3.886169482294640038e+05
3.935900000000000176e+00 3.939730306331807515e+05
3.967699999999999783e+00 3.991968249672608799e+05
3.999400000000000066e+00 4.037128057784934645e+05
4.031200000000000117e+00 4.073405814762913506e+05
4.062899999999999956e+00 4.100109543007240864e+05
4.094599999999999795e+00 4.113572684734177892e+05
4.126400000000000290e+00 4.110551176542729372e+05
4.158100000000000129e+00 4.092354980211592629e+05
4.189899999999999736e+00 4.064586422135622706e+05
4.221599999999999575e+00 4.033130991244252655e+05
4.253400000000000070e+00 4.002201099545999896e+05
4.285099999999999909e+00 3.973429193541863933e+05
4.316799999999999748e+00 3.947704091260176501e+05
4.348600000000000243e+00 3.925849594914920744e+05
4.380300000000000082e+00 3.905542686795447953e+05
4.412099999999999689e+00 3.882576862928615883e+05
4.443800000000000416e+00 3.855340034526214004e+05
4.475500000000000256e+00 3.827873805503082694e+05
4.507299999999999862e+00 3.807784204073237488e+05
4.538999999999999702e+00 3.802266469324188074e+05
4.570800000000000196e+00 3.815133486033438821e+05
4.602500000000000036e+00 3.842868577304035425e+05
4.634199999999999875e+00 3.878762904980966705e+05
4.666000000000000369e+00 3.918971769251976511e+05
4.697700000000000209e+00 3.962150338767589419e+05
4.729499999999999815e+00 4.008338124302365468e+05
4.761199999999999655e+00 4.054893983387068729e+05
4.793000000000000149e+00 4.098993539645510609e+05
4.824699999999999989e+00 4.139602047648249427e+05
4.856399999999999828e+00 4.176853344516413053e+05
4.888200000000000323e+00 4.209677814866388799e+05
4.919900000000000162e+00 4.236117017809337121e+05
4.951699999999999768e+00 4.254156354385311715e+05
4.983399999999999608e+00 4.261257911510049598e+05
5.015100000000000335e+00 4.256522973476030747e+05
5.046899999999999942e+00 4.242400243875968154e+05
5.078599999999999781e+00 4.222734386439812952e+05
5.110400000000000276e+00 4.200416113547169953e+05
5.142100000000000115e+00 4.178422113472545170e+05
5.173899999999999721e+00 4.163758810175020481e+05
5.205599999999999561e+00 4.162096329532522941e+05
5.237300000000000288e+00 4.174256128589130240e+05
5.269099999999999895e+00 4.200571268982101465e+05
5.300799999999999734e+00 4.245120756481487188e+05
5.332600000000000229e+00 4.314973227167959558e+05
5.364300000000000068e+00 4.415573110748031177e+05
5.395999999999999908e+00 4.548831810824249987e+05
5.427800000000000402e+00 4.715807270452718367e+05
5.459500000000000242e+00 4.919806202127316501e+05
5.491299999999999848e+00 5.164232305252979859e+05
5.522999999999999687e+00 5.442891376620904775e+05
5.554700000000000415e+00 5.730280146820602240e+05
5.586500000000000021e+00 5.978129847366780741e+05
5.618199999999999861e+00 6.125240990086373640e+05
5.650000000000000355e+00 6.130921682476501446e+05
5.681700000000000195e+00 6.006972547542224638e+05
5.713499999999999801e+00 5.806581671919403598e+05
5.745199999999999640e+00 5.582318618493542308e+05
5.776900000000000368e+00 5.367251085924850777e+05
5.808699999999999974e+00 5.179630716855774517e+05
5.840399999999999814e+00 5.027383861123781535e+05
5.872200000000000308e+00 4.909491161585886148e+05
5.903900000000000148e+00 4.820355890280169551e+05
5.935599999999999987e+00 4.756623076830442296e+05
5.967399999999999594e+00 4.717034542975178920e+05
5.999100000000000321e+00 4.698633095621731482e+05
6.030899999999999928e+00 4.697371351283811964e+05
6.062599999999999767e+00 4.709239505391823477e+05
6.094400000000000261e+00 4.732778238624675432e+05
6.126100000000000101e+00 4.770420438150529517e+05
6.157799999999999940e+00 4.827508935383837670e+05
6.189600000000000435e+00 4.905546582370412652e+05
6.221300000000000274e+00 5.000076400486998027e+05
6.253099999999999881e+00 5.105473649293365306e+05
6.284799999999999720e+00 5.217799375408976921e+05
6.316499999999999559e+00 5.334865372296357527e+05
6.348300000000000054e+00 5.456196086058608489e+05
6.379999999999999893e+00 5.581233359764126362e+05
6.411800000000000388e+00 5.709052440569860628e+05
6.443500000000000227e+00 5.838683708431989653e+05
6.475299999999999834e+00 5.969414671980646672e+05
6.506999999999999673e+00 6.100021556461945875e+05
6.538700000000000401e+00 6.229697021345315734e+05
6.570500000000000007e+00 6.358416535763925640e+05
6.602199999999999847e+00 6.484392796029810561e+05
6.634000000000000341e+00 6.605243134740042733e+05
6.665700000000000180e+00 6.721213789745294489e+05
6.697400000000000020e+00 6.835943286343084183e+05
6.729199999999999626e+00 6.954081273288195953e+05
6.760900000000000354e+00 7.075588121796762571e+05
6.792699999999999960e+00 7.193694120162896579e+05
6.824399999999999800e+00 7.299058805547144730e+05
6.856099999999999639e+00 7.386194271718492964e+05
6.887900000000000134e+00 7.456471001242975472e+05
6.919599999999999973e+00 7.515726794280387694e+05
6.951399999999999579e+00 7.571412693655716721e+05
6.983100000000000307e+00 7.627124876608449267e+05
7.014899999999999913e+00 7.682948086727950722e+05
7.046599999999999753e+00 7.736991643520545913e+05
7.078299999999999592e+00 7.788198720042464556e+05
7.110100000000000087e+00 7.838579093160310294e+05
7.141799999999999926e+00 7.888059253274839139e+05
7.173600000000000421e+00 7.933266797577956459e+05
7.205300000000000260e+00 7.972234212239899207e+05
7.237000000000000099e+00 8.008245010117605561e+05
7.268799999999999706e+00 8.044315294973478885e+05
7.300500000000000433e+00 8.080436020978444722e+05
7.332300000000000040e+00 8.112950535553952213e+05
7.363999999999999879e+00 8.136294936048055533e+05
7.395800000000000374e+00 8.149159961005598307e+05
7.427500000000000213e+00 8.153407087492136052e+05
7.459200000000000053e+00 8.153978042493864195e+05
7.490999999999999659e+00 8.157022478110287338e+05
7.522700000000000387e+00 8.165872155331096146e+05
7.554499999999999993e+00 8.180108014889729675e+05
7.586199999999999832e+00 8.196587368750784080e+05
7.617899999999999672e+00 8.214564830500850221e+05
7.649700000000000166e+00 8.235256647673298139e+05
7.681400000000000006e+00 8.259713203426983673e+05
7.713199999999999612e+00 8.290696946941876085e+05
7.744900000000000340e+00 8.328915056059972849e+05
7.776600000000000179e+00 8.371932776772220386e+05
7.808399999999999785e+00 8.415711629302167566e+05
7.840099999999999625e+00 8.456709362410674803e+05
7.871900000000000119e+00 8.494159231497022556e+05
7.903599999999999959e+00 8.529671562721987721e+05
7.935399999999999565e+00 8.564154429697081214e+05
7.967100000000000293e+00 8.595950721552191535e+05
7.998800000000000132e+00 8.624282153132962994e+05
8.030599999999999739e+00 8.650444424909581430e+05
8.062300000000000466e+00 8.675031353686320363e+05
8.094099999999999184e+00 8.698517938938010484e+05
8.125799999999999912e+00 8.719664487175934482e+05
8.157500000000000639e+00 8.737561418559943559e+05
8.189299999999999358e+00 8.752480995334491599e+05
8.221000000000000085e+00 8.762955261461567134e+05
8.252800000000000580e+00 8.768755978434432764e+05
8.284499999999999531e+00 8.771158458687749226e+05
8.316300000000000026e+00 8.772519617283431580e+05
8.348000000000000753e+00 8.774131117692523403e+05
8.379699999999999704e+00 8.776361948090917431e+05
8.411500000000000199e+00 8.778601285242059967e+05
8.443199999999999150e+00 8.781025165338487132e+05
8.474999999999999645e+00 8.786359902636834886e+05
8.506700000000000372e+00 8.799591067848431412e+05
8.538399999999999324e+00 8.826713719970061211e+05
8.570199999999999818e+00 8.873196530703253811e+05
8.601900000000000546e+00 8.947524834657459287e+05
8.633699999999999264e+00 9.064458269255261403e+05
8.665399999999999991e+00 9.238625735407033935e+05
8.697200000000000486e+00 9.476154593798124697e+05
8.728899999999999437e+00 9.765946944702548208e+05
8.760600000000000165e+00 1.006312635821233504e+06
8.792400000000000659e+00 1.028810584519938682e+06
8.824099999999999611e+00 1.038257380962969270e+06
8.855900000000000105e+00 1.035878111451516510e+06
8.887600000000000833e+00 1.027268934410892311e+06
8.919299999999999784e+00 1.017335839468008955e+06
8.951100000000000279e+00 1.008725806776362122e+06
8.982799999999999230e+00 1.002044237810689840e+06
9.014599999999999724e+00 9.968618021633786848e+05
9.046300000000000452e+00 9.925096296422233572e+05
9.077999999999999403e+00 9.887673405597406672e+05
9.109799999999999898e+00 9.855812388685883489e+05
9.141500000000000625e+00 9.830989624322837917e+05
9.173299999999999343e+00 9.814922325612165732e+05
9.205000000000000071e+00 9.805399230489196489e+05
9.236800000000000566e+00 9.797925131128656212e+05
9.268499999999999517e+00 9.789531550063350005e+05
9.300200000000000244e+00 9.781828164044753648e+05
9.332000000000000739e+00 9.773578371406981023e+05
9.363699999999999690e+00 9.758504706398624694e+05
9.395500000000000185e+00 9.734223678127808962e+05
9.427199999999999136e+00 9.704789079506357666e+05
9.458899999999999864e+00 9.677610452151549980e+05
9.490700000000000358e+00 9.657508786562496098e+05
9.522399999999999309e+00 9.648747954305489548e+05
9.554199999999999804e+00 9.654024629505301127e+05
9.585900000000000531e+00 9.661544428772584070e+05
9.617699999999999250e+00 9.650469259592158487e+05
9.649399999999999977e+00 9.612997008474363247e+05
9.681100000000000705e+00 9.560094700529215625e+05
9.712899999999999423e+00 9.507275077081613708e+05
9.744600000000000151e+00 9.464516395902243676e+05
9.776400000000000645e+00 9.433560587298605824e+05
9.808099999999999596e+00 9.410520274800135521e+05
9.839800000000000324e+00 9.394028441289418843e+05
9.871600000000000819e+00 9.380266366405920126e+05
9.903299999999999770e+00 9.360127114097548183e+05
9.935100000000000264e+00 9.328777167456824100e+05
9.966799999999999216e+00 9.288885478331207996e+05
9.998499999999999943e+00 9.238888230950019788e+05
1.003030000000000044e+01 9.175301540063463617e+05
1.006199999999999939e+01 9.100889949999331729e+05
1.009379999999999988e+01 9.021933401553096483e+05
1.012550000000000061e+01 8.941663890481122071e+05
1.015729999999999933e+01 8.862066055879266933e+05
1.018900000000000006e+01 8.785544272551895119e+05
1.022070000000000078e+01 8.712757168651514221e+05
1.025249999999999950e+01 8.647828426470945124e+05
1.028420000000000023e+01 8.593674357336000539e+05
1.031600000000000072e+01 8.549330436612602789e+05
1.034769999999999968e+01 8.513848408384516370e+05
1.037940000000000040e+01 8.487333848437401466e+05
1.041119999999999912e+01 8.471149198818468722e+05
1.044289999999999985e+01 8.464138586920367088e+05
1.047470000000000034e+01 8.459833131063544424e+05
1.050639999999999930e+01 8.451215528874438023e+05
1.053819999999999979e+01 8.440082790698724566e+05
1.056990000000000052e+01 8.431510528675825335e+05
1.060159999999999947e+01 8.423863036956655560e+05
1.063339999999999996e+01 8.413127970587091986e+05
1.066510000000000069e+01 8.397872015354169998e+05
1.069689999999999941e+01 8.374132897705356590e+05
1.072860000000000014e+01 8.336655891381219262e+05
1.076030000000000086e+01 8.289249793837706093e+05
1.079209999999999958e+01 8.241536414814408636e+05
1.082380000000000031e+01 8.196805519285342889e+05
1.085560000000000080e+01 8.152521500022547552e+05
1.088729999999999976e+01 8.105791403325988213e+05
1.091910000000000025e+01 8.055210629459423944e+05
1.095079999999999920e+01 8.000660110646971734e+05
1.098249999999999993e+01 7.943325672439091140e+05
1.101430000000000042e+01 7.883456719426674535e+05
1.104599999999999937e+01 7.821991537432369078e+05
1.107779999999999987e+01 7.760034993321248330e+05
1.110950000000000060e+01 7.700429568952324335e+05
1.114119999999999955e+01 7.649560088797216304e+05
1.117300000000000004e+01 7.609542675577397458e+05
1.120470000000000077e+01 7.578523654754167655e+05
1.123649999999999949e+01 7.555945532050734619e+05
1.126820000000000022e+01 7.543665980006132741e+05
1.129989999999999917e+01 7.545007769561714958e+05
1.133169999999999966e+01 7.560400793450854253e+05
1.136340000000000039e+01 7.585962821340905502e+05
1.139520000000000088e+01 7.616782802238647128e+05
1.142689999999999984e+01 7.649113484309556661e+05
1.145870000000000033e+01 7.682828864258973626e+05
1.149039999999999928e+01 7.719307374573125271e+05
1.152210000000000001e+01 7.757832409480145434e+05
1.155390000000000050e+01 7.795683882716553053e+05
1.158559999999999945e+01 7.827335330459394027e+05
1.161739999999999995e+01 7.849446733579488937e+05
1.164910000000000068e+01 7.859209975400570547e+05
1.168079999999999963e+01 7.856080222310696263e+05
1.171260000000000012e+01 7.838724194952317048e+05
1.174430000000000085e+01 7.808309039069155697e+05
1.177609999999999957e+01 7.768983029056621017e+05
1.180780000000000030e+01 7.724445646570604295e+05
1.183960000000000079e+01 7.679900775185144739e+05
1.187129999999999974e+01 7.640047826742405305e+05
1.190300000000000047e+01 7.607681330541187199e+05
1.193479999999999919e+01 7.581153107789816568e+05
1.196649999999999991e+01 7.559528799776878441e+05
1.199830000000000041e+01 7.541363295579759870e+05
1.202999999999999936e+01 7.524671999129783362e+05
1.206170000000000009e+01 7.506959409143886296e+05
1.209350000000000058e+01 7.486662900761010824e+05
1.212519999999999953e+01 7.464861371312283445e+05
1.215700000000000003e+01 7.441202532725462224e+05
1.218870000000000076e+01 7.416398897820261773e+05
1.222039999999999971e+01 7.391050803808339406e+05
1.225220000000000020e+01 7.368691968013901496e+05
1.228389999999999915e+01 7.352094808369743405e+05
1.231569999999999965e+01 7.342295970788594568e+05
1.234740000000000038e+01 7.336046446536248550e+05
1.237920000000000087e+01 7.332765887671884848e+05
1.241089999999999982e+01 7.332952932797952089e+05
1.244260000000000055e+01 7.335403730394465383e+05
1.247439999999999927e+01 7.337923304996790830e+05
1.250609999999999999e+01 7.340684472359528299e+05
1.253790000000000049e+01 7.345915635888564866e+05
1.256959999999999944e+01 7.352726301448508166e+05
1.260130000000000017e+01 7.359914807634425815e+05
1.263310000000000066e+01 7.368422163629124407e+05
