# energy(eV) alpha
0.000000000000000000e+00 0.000000000000000000e+00
3.160000000000000309e-02 4.457439028594286090e-01
6.310000000000000331e-02 1.724454154385099969e+00
9.470000000000000639e-02 3.923600452265632921e+00
1.262999999999999956e-01 7.013734061781719653e+00
1.579000000000000126e-01 1.113346133088798950e+01
1.894000000000000128e-01 1.602337946209011221e+01
2.210000000000000020e-01 2.161499400661666925e+01
2.525999999999999912e-01 2.826207617007074191e+01
2.841000000000000192e-01 3.603429772413051779e+01
3.156999999999999806e-01 4.475981992460106795e+01
3.472999999999999976e-01 5.381471822067649668e+01
3.788000000000000256e-01 6.434826837558254908e+01
4.103999999999999870e-01 7.583513613474536896e+01
4.420000000000000040e-01 8.786967689496670175e+01
4.736000000000000210e-01 1.012001271314429545e+02
5.050999999999999934e-01 1.154411996521040038e+02
5.366999999999999549e-01 1.306336008166970259e+02
5.683000000000000274e-01 1.472532894687817588e+02
5.997999999999999998e-01 1.643011158741906002e+02
6.313999999999999613e-01 1.828523439062336990e+02
6.630000000000000338e-01 2.023791698036725677e+02
6.945000000000000062e-01 2.228475409845528361e+02
7.260999999999999677e-01 2.449534866116689500e+02
7.577000000000000401e-01 2.674159839818036062e+02
7.893000000000000016e-01 2.915310465784945677e+02
8.207999999999999741e-01 3.166226763613166213e+02
8.524000000000000465e-01 3.427628913214335853e+02
8.840000000000000080e-01 3.706817423652767616e+02
9.154999999999999805e-01 3.996080109196203694e+02
9.471000000000000529e-01 4.296312341773665366e+02
9.787000000000000144e-01 4.606995544182150866e+02
1.010199999999999987e+00 4.945210904605842188e+02
1.041800000000000059e+00 5.286251263552099999e+02
1.073399999999999910e+00 5.647454355129033274e+02
1.104999999999999982e+00 6.019933879523241558e+02
1.136500000000000066e+00 6.413009932284652450e+02
1.168099999999999916e+00 6.818281277079809115e+02
1.199699999999999989e+00 7.245583450066934574e+02
1.231200000000000072e+00 7.684354071612990538e+02
1.262799999999999923e+00 8.146632183094188804e+02
1.294399999999999995e+00 8.621372916284547046e+02
1.325900000000000079e+00 9.119132281628126293e+02
1.357499999999999929e+00 9.642109064510833605e+02
1.389100000000000001e+00 1.019015759696673399e+03
1.420700000000000074e+00 1.075181477051103684e+03
1.452199999999999935e+00 1.132610042657794565e+03
1.483800000000000008e+00 1.192721258430378612e+03
1.515400000000000080e+00 1.256808068988357491e+03
1.546899999999999942e+00 1.322261519604443720e+03
1.578500000000000014e+00 1.391939025050288592e+03
1.610100000000000087e+00 1.463146539775515066e+03
1.641699999999999937e+00 1.538666725300412281e+03
1.673200000000000021e+00 1.615676002315698952e+03
1.704800000000000093e+00 1.697257275213246658e+03
1.736399999999999944e+00 1.781960042210184611e+03
1.767900000000000027e+00 1.871205751274693057e+03
1.799500000000000099e+00 1.962331614131468996e+03
1.831099999999999950e+00 2.058256065872767522e+03
1.862600000000000033e+00 2.159008540546160930e+03
1.894200000000000106e+00 2.263325496586729059e+03
1.925799999999999956e+00 2.374342134268228619e+03
1.957400000000000029e+00 2.489009588899846221e+03
1.988899999999999890e+00 2.608849475649735268e+03
2.020500000000000185e+00 2.734235214936479679e+03
2.052099999999999813e+00 2.868536086100714783e+03
2.083600000000000119e+00 3.008390387161866329e+03
2.115200000000000191e+00 3.154151470492227872e+03
2.146799999999999820e+00 3.307530202399892005e+03
2.178300000000000125e+00 3.468516832419864386e+03
2.209900000000000198e+00 3.637540661145648301e+03
2.241499999999999826e+00 3.818264384009500191e+03
2.273099999999999898e+00 4.007192960027387016e+03
2.304600000000000204e+00 4.209894537247230801e+03
2.336199999999999832e+00 4.421285506419440026e+03
2.367799999999999905e+00 4.647059300285588506e+03
2.399300000000000210e+00 4.887232067166438355e+03
2.430899999999999839e+00 5.142421736847887587e+03
2.462499999999999911e+00 5.412672734564564962e+03
2.494000000000000217e+00 5.701877871680305361e+03
2.525599999999999845e+00 6.012793692124208974e+03
2.557199999999999918e+00 6.347536009844798173e+03
2.588799999999999990e+00 6.702246744871092233e+03
2.620299999999999851e+00 7.087238625585801856e+03
2.651899999999999924e+00 7.505451915102185922e+03
2.683499999999999996e+00 7.956883873291680175e+03
2.714999999999999858e+00 8.447938890897197780e+03
2.746599999999999930e+00 8.985851684738567201e+03
2.778200000000000003e+00 9.570778753541073456e+03
2.809699999999999864e+00 1.021754847231573876e+04
2.841299999999999937e+00 1.093593477776092186e+04
2.872900000000000009e+00 1.173021497360288777e+04
2.904500000000000082e+00 1.262248670010042042e+04
2.935999999999999943e+00 1.362547443809764991e+04
2.967600000000000016e+00 1.476662925987605558e+04
2.999200000000000088e+00 1.607386553290665324e+04
3.030699999999999950e+00 1.758158968139404533e+04
3.062300000000000022e+00 1.935195923246100938e+04
3.093900000000000095e+00 2.145154367432013169e+04
3.125500000000000167e+00 2.397976192330425692e+04
3.157000000000000028e+00 2.708470779515431059e+04
3.188600000000000101e+00 3.097709536654120166e+04
3.220200000000000173e+00 3.596448033559868782e+04
3.251700000000000035e+00 4.248166751751456468e+04
3.283300000000000107e+00 5.107352609930154722e+04
3.314900000000000180e+00 6.227438126818204182e+04
3.346400000000000041e+00 7.634741712326499692e+04
3.378000000000000114e+00 9.291993472544250835e+04
3.409600000000000186e+00 1.109066855971994228e+05
3.441199999999999815e+00 1.293483717141582456e+05
3.472700000000000120e+00 1.479004455496194423e+05
3.504300000000000193e+00 1.663194058221713349e+05
3.535899999999999821e+00 1.844615563479725970e+05
3.567400000000000126e+00 2.028411106593606528e+05
3.599000000000000199e+00 2.218548546759535093e+05
3.630599999999999827e+00 2.404159839289982046e+05
3.662100000000000133e+00 2.557788346784269379e+05
3.693700000000000205e+00 2.653203968740518903e+05
3.725299999999999834e+00 2.685234809486754821e+05
3.756899999999999906e+00 2.669654714528550394e+05
3.788400000000000212e+00 2.629318309625277761e+05
3.819999999999999840e+00 2.585924987834486237e+05
3.851599999999999913e+00 2.554979783641452668e+05
3.883100000000000218e+00 2.540594048932890291e+05
3.914699999999999847e+00 2.538203744012336829e+05
3.946299999999999919e+00 2.545090691688378865e+05
3.977799999999999780e+00 2.564976877071877534e+05
4.009400000000000297e+00 2.601465809429820802e+05
4.041000000000000369e+00 2.651672824860672699e+05
4.072600000000000442e+00 2.708814937880579964e+05
4.104099999999999859e+00 2.766745335849507246e+05
4.135699999999999932e+00 2.821683673702184460e+05
4.167300000000000004e+00 2.868934209487980697e+05
4.198800000000000310e+00 2.901900193049177760e+05
4.230400000000000382e+00 2.923298824262067210e+05
4.261999999999999567e+00 2.944536019406017731e+05
4.293599999999999639e+00 2.972291402477844968e+05
4.325099999999999945e+00 3.005906314867954352e+05
4.356700000000000017e+00 3.042164692726660287e+05
4.388300000000000090e+00 3.076012029408036615e+05
4.419800000000000395e+00 3.104188439809895935e+05
4.451399999999999579e+00 3.132276745520355180e+05
4.482999999999999652e+00 3.174428106398378150e+05
4.514499999999999957e+00 3.244107030608377536e+05
4.546100000000000030e+00 3.345270977268076967e+05
4.577700000000000102e+00 3.470764605777648976e+05
4.609300000000000175e+00 3.610595535578425624e+05
4.640799999999999592e+00 3.762408148422584054e+05
4.672399999999999665e+00 3.928365055081602768e+05
4.703999999999999737e+00 4.099193443536453415e+05
4.735500000000000043e+00 4.257660111692353967e+05
4.767100000000000115e+00 4.392000773105261032e+05
4.798700000000000188e+00 4.496614505274408148e+05
4.830199999999999605e+00 4.573576966940209968e+05
4.861799999999999677e+00 4.631279444206771441e+05
4.893399999999999750e+00 4.676580876720258966e+05
4.924999999999999822e+00 4.710809913614752586e+05
4.956500000000000128e+00 4.731845805508810445e+05
4.988100000000000200e+00 4.739345221171810408e+05
5.019700000000000273e+00 4.735168406804398401e+05
5.051199999999999690e+00 4.722495722613108810e+05
5.082799999999999763e+00 4.703942043019908015e+05
5.114399999999999835e+00 4.680148672587690526e+05
5.145900000000000141e+00 4.654119699583715410e+05
5.177500000000000213e+00 4.637400439090041327e+05
5.209100000000000286e+00 4.639904260394002777e+05
5.240700000000000358e+00 4.661082663869476528e+05
5.272199999999999775e+00 4.699204770666261320e+05
5.303799999999999848e+00 4.759064576053369674e+05
5.335399999999999920e+00 4.849770556516217766e+05
5.366900000000000226e+00 4.982322087629291345e+05
5.398500000000000298e+00 5.166551854561135406e+05
5.430100000000000371e+00 5.407400876234080642e+05
5.461599999999999788e+00 5.700059349512340268e+05
5.493199999999999861e+00 6.015929761093312409e+05
5.524799999999999933e+00 6.303167558313773479e+05
5.556400000000000006e+00 6.513187809031744255e+05
5.587900000000000311e+00 6.617318170455317013e+05
5.619500000000000384e+00 6.609129585133240325e+05
5.651099999999999568e+00 6.498944402255890891e+05
5.682599999999999874e+00 6.314703200261614984e+05
5.714199999999999946e+00 6.099877238586279564e+05
5.745800000000000018e+00 5.895612284578551771e+05
5.777400000000000091e+00 5.724153196955228923e+05
5.808900000000000396e+00 5.590533893229548121e+05
5.840499999999999581e+00 5.493478819951913320e+05
5.872099999999999653e+00 5.426748319402517518e+05
5.903599999999999959e+00 5.382594400963503867e+05
5.935200000000000031e+00 5.356969603444043314e+05
5.966800000000000104e+00 5.343484441259565065e+05
5.998300000000000409e+00 5.334130716342816595e+05
6.029899999999999594e+00 5.327607898376348894e+05
6.061499999999999666e+00 5.328523671318013221e+05
6.093099999999999739e+00 5.347325714321378618e+05
6.124600000000000044e+00 5.391843203122433042e+05
6.156200000000000117e+00 5.460711977910400601e+05
6.187800000000000189e+00 5.547173507899532560e+05
6.219299999999999606e+00 5.646904213660481619e+05
6.250899999999999679e+00 5.759793006691719638e+05
6.282499999999999751e+00 5.882630033101929585e+05
6.314000000000000057e+00 6.007361588476413162e+05
6.345600000000000129e+00 6.127555727524111280e+05
6.377200000000000202e+00 6.239099960637516342e+05
6.408800000000000274e+00 6.338816122864389326e+05
6.440299999999999692e+00 6.428127749897917965e+05
6.471899999999999764e+00 6.514135434761095094e+05
6.503499999999999837e+00 6.600126868599124718e+05
6.535000000000000142e+00 6.682793643575859023e+05
6.566600000000000215e+00 6.757797516954757739e+05
6.598200000000000287e+00 6.825862169854288222e+05
6.629699999999999704e+00 6.888926566953976871e+05
6.661299999999999777e+00 6.945725160505544627e+05
6.692899999999999849e+00 6.997324107311592670e+05
6.724499999999999922e+00 7.049779373403328937e+05
6.756000000000000227e+00 7.105747459577792324e+05
6.787600000000000300e+00 7.162168601854026783e+05
6.819200000000000372e+00 7.214757634264166700e+05
6.850699999999999790e+00 7.261790666121167596e+05
6.882299999999999862e+00 7.302735793951747473e+05
6.913899999999999935e+00 7.340213996785329655e+05
6.945400000000000240e+00 7.377063891779724509e+05
6.977000000000000313e+00 7.413534735919369850e+05
7.008600000000000385e+00 7.444629049038159428e+05
7.040199999999999569e+00 7.465139009516738588e+05
7.071699999999999875e+00 7.479673114635008387e+05
7.103299999999999947e+00 7.498109257416931214e+05
7.134900000000000020e+00 7.523259821551181376e+05
7.166400000000000325e+00 7.554869791921218857e+05
7.198000000000000398e+00 7.595196811446743086e+05
7.229599999999999582e+00 7.644331637610173784e+05
7.261199999999999655e+00 7.694927149426435353e+05
7.292699999999999960e+00 7.733436471675513312e+05
7.324300000000000033e+00 7.752304841915820725e+05
7.355900000000000105e+00 7.758369666043935576e+05
7.387400000000000411e+00 7.766757752462119097e+05
7.418999999999999595e+00 7.789142037719966611e+05
7.450599999999999667e+00 7.827394785559586016e+05
7.482099999999999973e+00 7.875808093898923835e+05
7.513700000000000045e+00 7.929071730051073246e+05
7.545300000000000118e+00 7.979433335822857916e+05
7.576900000000000190e+00 8.021069397458223393e+05
7.608399999999999608e+00 8.055493875770920422e+05
7.639999999999999680e+00 8.086712722486093407e+05
7.671599999999999753e+00 8.119181170845816378e+05
7.703100000000000058e+00 8.158776307815833716e+05
7.734700000000000131e+00 8.202636589907485759e+05
7.766300000000000203e+00 8.241795745137038175e+05
7.797799999999999621e+00 8.274163017928642221e+05
7.829399999999999693e+00 8.305663736531580798e+05
7.860999999999999766e+00 8.343617979160975665e+05
7.892599999999999838e+00 8.391051638381549856e+05
7.924100000000000144e+00 8.441697608216964873e+05
7.955700000000000216e+00 8.486852464802683098e+05
7.987300000000000288e+00 8.521914905070330715e+05
8.018800000000000594e+00 8.549523694344918476e+05
8.050399999999999778e+00 8.576886249374781037e+05
8.082000000000000739e+00 8.605471358882961795e+05
8.113500000000000156e+00 8.632932723314471077e+05
8.145099999999999341e+00 8.657438490488921525e+05
8.176700000000000301e+00 8.671842635347041069e+05
8.208299999999999486e+00 8.669145506367018679e+05
8.239800000000000679e+00 8.651359852933904622e+05
8.271399999999999864e+00 8.626389776101692114e+05
8.303000000000000824e+00 8.604116438698294805e+05
8.334500000000000242e+00 8.590129122711755335e+05
8.366099999999999426e+00 8.584292851599479327e+05
8.397700000000000387e+00 8.586707703786444617e+05
8.429199999999999804e+00 8.597482592774217483e+05
8.460800000000000765e+00 8.613546710335284006e+05
8.492399999999999949e+00 8.633273928589891875e+05
8.523999999999999133e+00 8.659038116449349327e+05
8.555500000000000327e+00 8.694142794084749185e+05
8.587099999999999511e+00 8.750123915374380304e+05
8.618700000000000472e+00 8.844987925812150352e+05
8.650199999999999889e+00 8.993493988615929848e+05
8.681800000000000850e+00 9.198966111284216167e+05
8.713400000000000034e+00 9.446874272423315560e+05
8.744999999999999218e+00 9.696410928485336481e+05
8.776500000000000412e+00 9.883163782489147270e+05
8.808099999999999596e+00 9.954091681082162540e+05
8.839700000000000557e+00 9.910724860954507021e+05
8.871199999999999974e+00 9.808208601885497337e+05
8.902799999999999159e+00 9.706036353133614175e+05
8.934400000000000119e+00 9.630863952138660243e+05
8.965899999999999537e+00 9.580468052581228549e+05
8.997500000000000497e+00 9.544576001167123904e+05
9.029099999999999682e+00 9.516270953918849118e+05
9.060700000000000642e+00 9.494367262420962797e+05
9.092200000000000060e+00 9.479272582699393388e+05
9.123799999999999244e+00 9.470087013304888969e+05
9.155400000000000205e+00 9.465754569716778351e+05
9.186899999999999622e+00 9.467844548937949585e+05
9.218500000000000583e+00 9.477874672444956377e+05
9.250099999999999767e+00 9.489075821814339142e+05
9.281599999999999184e+00 9.495342228356350679e+05
9.313200000000000145e+00 9.497405663810775150e+05
9.344799999999999329e+00 9.495698739376143785e+05
9.376400000000000290e+00 9.487460692153529963e+05
9.407899999999999707e+00 9.467062718577072956e+05
9.439500000000000668e+00 9.432832795268385671e+05
9.471099999999999852e+00 9.388671737908485811e+05
9.502599999999999270e+00 9.340962028989274986e+05
9.534200000000000230e+00 9.294943163226126926e+05
9.565799999999999415e+00 9.250316087607335066e+05
9.597300000000000608e+00 9.203720748374704272e+05
9.628899999999999793e+00 9.152742302148651797e+05
9.660500000000000753e+00 9.099107733245807467e+05
9.692099999999999937e+00 9.047510536418288248e+05
9.723599999999999355e+00 8.997209429265001090e+05
9.755200000000000315e+00 8.946108785623547155e+05
9.786799999999999500e+00 8.892302744064930594e+05
9.818300000000000693e+00 8.833099160760157974e+05
9.849899999999999878e+00 8.767142559680101695e+05
9.881500000000000838e+00 8.696923044017618522e+05
9.913100000000000023e+00 8.633294021697929129e+05
9.944599999999999440e+00 8.582396688237861963e+05
9.976200000000000401e+00 8.537124999839101220e+05
1.000779999999999959e+01 8.486567435321717057e+05
1.003930000000000078e+01 8.431357772299044300e+05
1.007089999999999996e+01 8.386391975980591960e+05
1.010249999999999915e+01 8.370014321275646798e+05
1.013400000000000034e+01 8.385682163828593912e+05
1.016559999999999953e+01 8.418377761536110193e+05
1.019720000000000049e+01 8.448642211326197721e+05
1.022879999999999967e+01 8.468044468267032644e+05
1.026030000000000086e+01 8.474012054228466004e+05
1.029190000000000005e+01 8.468214707167665474e+05
1.032349999999999923e+01 8.454090400933028432e+05
1.035500000000000043e+01 8.433519846204902278e+05
1.038659999999999961e+01 8.403415035551203182e+05
1.041820000000000057e+01 8.349618498370579910e+05
1.044969999999999999e+01 8.261646822882293491e+05
1.048129999999999917e+01 8.152484796366916271e+05
1.051290000000000013e+01 8.052735043258724036e+05
1.054449999999999932e+01 7.987180154516845942e+05
1.057600000000000051e+01 7.958764333723408636e+05
1.060759999999999970e+01 7.947210633306377567e+05
1.063920000000000066e+01 7.925900635176544311e+05
1.067070000000000007e+01 7.879386775191840716e+05
1.070229999999999926e+01 7.808378691387278959e+05
1.073390000000000022e+01 7.726181215558663243e+05
1.076539999999999964e+01 7.647168308439641260e+05
1.079700000000000060e+01 7.576957063597838860e+05
1.082859999999999978e+01 7.511926214911421994e+05
1.086020000000000074e+01 7.447313568865865236e+05
1.089170000000000016e+01 7.387386999938366935e+05
1.092329999999999934e+01 7.340208271460972028e+05
1.095490000000000030e+01 7.307320915958270198e+05
1.098639999999999972e+01 7.283643067685615970e+05
1.101800000000000068e+01 7.262390961289353436e+05
1.104959999999999987e+01 7.234537409540090011e+05
1.108109999999999928e+01 7.194559393577461597e+05
1.111270000000000024e+01 7.144704169832585612e+05
1.114429999999999943e+01 7.090888968750869390e+05
1.117590000000000039e+01 7.040959406085532391e+05
1.120739999999999981e+01 7.000786736316104652e+05
1.123900000000000077e+01 6.975038663025487913e+05
1.127059999999999995e+01 6.962782707447755383e+05
1.130209999999999937e+01 6.959571493261196883e+05
1.133370000000000033e+01 6.962639817261479329e+05
1.136529999999999951e+01 6.970566741840243340e+05
1.139690000000000047e+01 6.983096388765327865e+05
1.142839999999999989e+01 6.996062828072957927e+05
1.146000000000000085e+01 7.002646237011034973e+05
1.149160000000000004e+01 6.997526678961113794e+05
1.152309999999999945e+01 6.984282546764301369e+05
1.155470000000000041e+01 6.970974430097994627e+05
1.158629999999999960e+01 6.961557414642962394e+05
1.161780000000000079e+01 6.952040215713122161e+05
1.164939999999999998e+01 6.938960679655073909e+05
1.168099999999999916e+01 6.919048626542019192e+05
1.171260000000000012e+01 6.891930513660305878e+05
1.174409999999999954e+01 6.863216301638170844e+05
1.177570000000000050e+01 6.840859450745438226e+05
1.180729999999999968e+01 6.828599984073638916e+05
1.183880000000000088e+01 6.825684368304896634e+05
1.187040000000000006e+01 6.827392653756712098e+05
1.190199999999999925e+01 6.827167830366230337e+05
1.193350000000000044e+01 6.819408913815908600e+05
1.196509999999999962e+01 6.803750161729672691e+05
1.199670000000000059e+01 6.785947555701783858e+05
1.202829999999999977e+01 6.770438124967045151e+05
1.205979999999999919e+01 6.758397934736772440e+05
1.209140000000000015e+01 6.750394616711188573e+05
1.212299999999999933e+01 6.744619579245741479e+05
1.215450000000000053e+01 6.737911425973792793e+05
1.218609999999999971e+01 6.730135162960196612e+05
1.221770000000000067e+01 6.721201145768701099e+05
1.224920000000000009e+01 6.711293159904272761e+05
1.228079999999999927e+01 6.702082514742224012e+05
1.231240000000000023e+01 6.695513145937423687e+05
1.234399999999999942e+01 6.691374230945270974e+05
1.237550000000000061e+01 6.685725771910764743e+05
1.240709999999999980e+01 6.680987705520869931e+05
1.243870000000000076e+01 6.683172835856530583e+05
1.247020000000000017e+01 6.696221005590237910e+05
1.250179999999999936e+01 6.721374128109120065e+05
1.253340000000000032e+01 6.753674136298799422e+05
1.256489999999999974e+01 6.786905621048642788e+05
