# energy(eV) alpha
0.000000000000000000e+00 0.000000000000000000e+00
4.669999999999999846e-02 1.072898324076957621e+00
9.339999999999999691e-02 4.043687822247641783e+00
1.401000000000000023e-01 9.282749450591895268e+00
1.867999999999999938e-01 1.649958150456301809e+01
2.335000000000000131e-01 2.577448801373506626e+01
2.801000000000000156e-01 3.733813845414540822e+01
3.267999999999999794e-01 5.104693470566926550e+01
3.734999999999999987e-01 6.721393680226759670e+01
4.202000000000000179e-01 8.521677468759511953e+01
4.668999999999999817e-01 1.061597833789751064e+02
5.135999999999999455e-01 1.289247206496472131e+02
5.603000000000000203e-01 1.548620952266266215e+02
6.069999999999999840e-01 1.826026704317650626e+02
6.536999999999999478e-01 2.143166726353402964e+02
7.004000000000000226e-01 2.478935973869890006e+02
7.470999999999999863e-01 2.864791341960348063e+02
7.937999999999999501e-01 3.256701429028260009e+02
8.404000000000000359e-01 3.701986000985378951e+02
8.870999999999999996e-01 4.182825122555419171e+02
9.337999999999999634e-01 4.707991628578673726e+02
9.805000000000000382e-01 5.262530811798001196e+02
1.027199999999999891e+00 5.864040142345717186e+02
1.073900000000000077e+00 6.524051428556725796e+02
1.120600000000000041e+00 7.235932684843779725e+02
1.167300000000000004e+00 8.011849521240028480e+02
1.213999999999999968e+00 8.854819777988309397e+02
1.260699999999999932e+00 9.778832580293567389e+02
1.307399999999999896e+00 1.076532278647126986e+03
1.354000000000000092e+00 1.186181696296755263e+03
1.400700000000000056e+00 1.303976991788618307e+03
1.447400000000000020e+00 1.435070983170304544e+03
1.494099999999999984e+00 1.578859362911175140e+03
1.540799999999999947e+00 1.738516853400315767e+03
1.587499999999999911e+00 1.914781043121043922e+03
1.634200000000000097e+00 2.112501191145027860e+03
1.680900000000000061e+00 2.334074224713397598e+03
1.727600000000000025e+00 2.586313715691601828e+03
1.774299999999999988e+00 2.872078156600871353e+03
1.820999999999999952e+00 3.198762379322881316e+03
1.867599999999999927e+00 3.581780312128343667e+03
1.914299999999999891e+00 4.028516736375558594e+03
1.961000000000000076e+00 4.563679856099165590e+03
2.007699999999999818e+00 5.213417135473510825e+03
2.054399999999999782e+00 6.019928422805751325e+03
2.101100000000000190e+00 7.044175450405311494e+03
2.147800000000000153e+00 8.393721944831539076e+03
2.194500000000000117e+00 1.023921198097474189e+04
2.241200000000000081e+00 1.289816721629263338e+04
2.287900000000000045e+00 1.689388646762814460e+04
2.334600000000000009e+00 2.279401555224598997e+04
2.381299999999999972e+00 2.998310788462566052e+04
2.427900000000000169e+00 3.787932308241439750e+04
2.474600000000000133e+00 4.987281106950128014e+04
2.521300000000000097e+00 6.528653380759043648e+04
2.568000000000000060e+00 7.758900760879715381e+04
2.614700000000000024e+00 8.731526483021632885e+04
2.661399999999999988e+00 9.373384501820473815e+04
2.708099999999999952e+00 9.044950305817672051e+04
2.754799999999999915e+00 8.841804512531818182e+04
2.801499999999999879e+00 9.128430576744006248e+04
2.848199999999999843e+00 9.062354457072440709e+04
2.894899999999999807e+00 9.441541424548227224e+04
2.941500000000000004e+00 1.045316269456290029e+05
2.988199999999999967e+00 1.124612583283479325e+05
3.034899999999999931e+00 1.268128256809624581e+05
3.081599999999999895e+00 1.410534907467527664e+05
3.128299999999999859e+00 1.283848273239906412e+05
3.174999999999999822e+00 1.004118279145594570e+05
3.221699999999999786e+00 7.917255687397395377e+04
3.268400000000000194e+00 6.912113732148059353e+04
3.315100000000000158e+00 6.832873136762928334e+04
3.361800000000000122e+00 7.187185830715687189e+04
3.408500000000000085e+00 7.341519612492827582e+04
3.455200000000000049e+00 7.622087484600653988e+04
3.501799999999999802e+00 8.359115799189326935e+04
3.548500000000000210e+00 9.146420681411474652e+04
3.595200000000000173e+00 9.422752703063446097e+04
3.641900000000000137e+00 9.259503735778623377e+04
3.688600000000000101e+00 8.562077800284806290e+04
3.735300000000000065e+00 7.773252653073516558e+04
3.782000000000000028e+00 7.501078248528475524e+04
3.828699999999999992e+00 7.691980985298794985e+04
3.875399999999999956e+00 8.009377720649256662e+04
3.922099999999999920e+00 8.042454661651849165e+04
3.968799999999999883e+00 7.867181480984343216e+04
4.015399999999999636e+00 8.005817000513340463e+04
4.062100000000000044e+00 8.545339206371831824e+04
4.108799999999999564e+00 9.282489629583309579e+04
4.155499999999999972e+00 1.011738450079591275e+05
4.202200000000000379e+00 1.110313953973467724e+05
4.248899999999999899e+00 1.239560777186034393e+05
4.295600000000000307e+00 1.414011336987458053e+05
4.342299999999999827e+00 1.580800510896972555e+05
4.389000000000000234e+00 1.725806227862816013e+05
4.435699999999999754e+00 1.841579277388642950e+05
4.482400000000000162e+00 1.892096083371854620e+05
4.528999999999999915e+00 1.951961058729478100e+05
4.575700000000000323e+00 2.107301773161140445e+05
4.622399999999999842e+00 2.332199486078172340e+05
4.669100000000000250e+00 2.569458863758313819e+05
4.715799999999999770e+00 2.789308945759818889e+05
4.762500000000000178e+00 2.973650300282622920e+05
4.809199999999999697e+00 3.155352874863794423e+05
4.855900000000000105e+00 3.344236559224495431e+05
4.902599999999999625e+00 3.529400704512014636e+05
4.949300000000000033e+00 3.669217798903759685e+05
4.996000000000000441e+00 3.756198289794832817e+05
5.042699999999999960e+00 3.818592805950186448e+05
5.089299999999999713e+00 3.904714444987800089e+05
5.136000000000000121e+00 3.995954689256735728e+05
5.182699999999999640e+00 3.984162219353948603e+05
5.229400000000000048e+00 3.954601644534020452e+05
5.276099999999999568e+00 3.965498857092725812e+05
5.322799999999999976e+00 3.947069114432219649e+05
5.369500000000000384e+00 3.875622465296073351e+05
5.416199999999999903e+00 3.776035981727493345e+05
5.462900000000000311e+00 3.666191237581445603e+05
5.509599999999999831e+00 3.594510468612397090e+05
5.556300000000000239e+00 3.590110983526568743e+05
5.602899999999999991e+00 3.648793970572132384e+05
5.649600000000000399e+00 3.755777840531760594e+05
5.696299999999999919e+00 3.883623934229632141e+05
5.743000000000000327e+00 3.978642326761677396e+05
5.789699999999999847e+00 4.058574577219125349e+05
5.836400000000000254e+00 4.175926912243815605e+05
5.883099999999999774e+00 4.319348757353797555e+05
5.929800000000000182e+00 4.484856582470847061e+05
5.976499999999999702e+00 4.666605492697934387e+05
6.023200000000000109e+00 4.852632040582732297e+05
6.069899999999999629e+00 5.055373587083100574e+05
6.116600000000000037e+00 5.274560731657525757e+05
6.163199999999999790e+00 5.539844130693265470e+05
6.209900000000000198e+00 5.772228976859793765e+05
6.256599999999999717e+00 5.913505568850098643e+05
6.303300000000000125e+00 5.980912766296291957e+05
6.349999999999999645e+00 5.967562589139274787e+05
6.396700000000000053e+00 5.878383315886206692e+05
6.443399999999999572e+00 5.715375833322897088e+05
6.490099999999999980e+00 5.520128013166808523e+05
6.536800000000000388e+00 5.381419317458802834e+05
6.583499999999999908e+00 5.276983458641018951e+05
6.630200000000000315e+00 5.147379781387638650e+05
6.676800000000000068e+00 5.036829974825112149e+05
6.723499999999999588e+00 5.018771453940659994e+05
6.770199999999999996e+00 5.109863749516632524e+05
6.816900000000000404e+00 5.291488030777714448e+05
6.863599999999999923e+00 5.485473347358423052e+05
6.910300000000000331e+00 5.617006125488234684e+05
6.956999999999999851e+00 5.677823988641393371e+05
7.003700000000000259e+00 5.690735245208517881e+05
7.050399999999999778e+00 5.695524703744516009e+05
7.097100000000000186e+00 5.700310985367262037e+05
7.143799999999999706e+00 5.697880066241376335e+05
7.190500000000000114e+00 5.683417959707302507e+05
7.237099999999999866e+00 5.665893674491305137e+05
7.283800000000000274e+00 5.671075956206384581e+05
7.330499999999999794e+00 5.680852641871076776e+05
7.377200000000000202e+00 5.692042839240131434e+05
7.423899999999999721e+00 5.766176074919452658e+05
7.470600000000000129e+00 5.931840205754959024e+05
7.517299999999999649e+00 6.135692924359849421e+05
7.564000000000000057e+00 6.358320015719106887e+05
7.610699999999999577e+00 6.572772445635560434e+05
7.657399999999999984e+00 6.732408332687630318e+05
7.704100000000000392e+00 6.834565607985825045e+05
7.750700000000000145e+00 6.874947548578333808e+05
7.797399999999999665e+00 6.829367503441158915e+05
7.844100000000000072e+00 6.699720009429695783e+05
7.890799999999999592e+00 6.589535756458279211e+05
7.937500000000000000e+00 6.563714778951292392e+05
7.984200000000000408e+00 6.621693033498874865e+05
8.030900000000000816e+00 6.723540019569825381e+05
8.077600000000000335e+00 6.800351593404765008e+05
8.124299999999999855e+00 6.845186277218613541e+05
8.170999999999999375e+00 6.879001149480500026e+05
8.217700000000000671e+00 6.952465062280729180e+05
8.264300000000000423e+00 7.060184622722463682e+05
8.310999999999999943e+00 7.197199385899463668e+05
8.357699999999999463e+00 7.410854786553935846e+05
8.404400000000000759e+00 7.681735840499100741e+05
8.451100000000000279e+00 7.941560063767866232e+05
8.497799999999999798e+00 8.135768394626006484e+05
8.544499999999999318e+00 8.223457295094007859e+05
8.591200000000000614e+00 8.196437893753192620e+05
8.637900000000000134e+00 8.081035191781450994e+05
8.684599999999999653e+00 7.868598373613038566e+05
8.731299999999999173e+00 7.563566964860248845e+05
8.778000000000000469e+00 7.246369934280149173e+05
8.824600000000000222e+00 6.979659405020392733e+05
8.871299999999999741e+00 6.752246815055470215e+05
8.917999999999999261e+00 6.544048549106855644e+05
8.964700000000000557e+00 6.322601756675338838e+05
9.011400000000000077e+00 6.106937370579520939e+05
9.058099999999999596e+00 5.938472703025982482e+05
9.104799999999999116e+00 5.788496572411814705e+05
9.151500000000000412e+00 5.633295724842543714e+05
9.198199999999999932e+00 5.486219669345172588e+05
9.244899999999999451e+00 5.359169299823582405e+05
9.291600000000000747e+00 5.249188250120534794e+05
9.338200000000000500e+00 5.154463189568136586e+05
9.384900000000000020e+00 5.086740824933840195e+05
9.431599999999999540e+00 5.081488737723485683e+05
9.478300000000000836e+00 5.134983567194650532e+05
9.525000000000000355e+00 5.204237963850521483e+05
9.571699999999999875e+00 5.261913529088001233e+05
9.618399999999999395e+00 5.250685376358211506e+05
9.665100000000000691e+00 5.191380234306629864e+05
9.711800000000000210e+00 5.147958017238109605e+05
9.758499999999999730e+00 5.157587766586476937e+05
9.805199999999999250e+00 5.210547295978089096e+05
9.851900000000000546e+00 5.295108609721772373e+05
9.898500000000000298e+00 5.438130578976317775e+05
9.945199999999999818e+00 5.627680394282980124e+05
9.991899999999999338e+00 5.807252515797953820e+05
1.003860000000000063e+01 5.935473167799493531e+05
1.008530000000000015e+01 6.009408529266717378e+05
1.013199999999999967e+01 6.080031735196664231e+05
1.017869999999999919e+01 6.162342626283197897e+05
1.022540000000000049e+01 6.248074660230237059e+05
1.027210000000000001e+01 6.297939231466463534e+05
1.031879999999999953e+01 6.310406284306000452e+05
1.036550000000000082e+01 6.352527343482965371e+05
1.041210000000000058e+01 6.414959999315368477e+05
1.045880000000000010e+01 6.489724962770780548e+05
1.050549999999999962e+01 6.599860882671640720e+05
1.055219999999999914e+01 6.759701306132061873e+05
1.059890000000000043e+01 6.945953760730961803e+05
1.064559999999999995e+01 7.121459589126826031e+05
1.069229999999999947e+01 7.287648900697465288e+05
1.073900000000000077e+01 7.479800143548273481e+05
1.078570000000000029e+01 7.730809538895871956e+05
1.083239999999999981e+01 8.012946610780290794e+05
1.087909999999999933e+01 8.309680804835932795e+05
1.092570000000000086e+01 8.563190786644755863e+05
1.097240000000000038e+01 8.687512299872557633e+05
1.101909999999999989e+01 8.714658628775124671e+05
1.106579999999999941e+01 8.705062968013437930e+05
1.111250000000000071e+01 8.710794534607796231e+05
1.115920000000000023e+01 8.769892959544906626e+05
1.120589999999999975e+01 8.898246790363745531e+05
1.125259999999999927e+01 9.088258980161264772e+05
1.129930000000000057e+01 9.305858471104447963e+05
1.134600000000000009e+01 9.468443141299678246e+05
1.139269999999999960e+01 9.545337661782298237e+05
1.143939999999999912e+01 9.578573151007235283e+05
1.148600000000000065e+01 9.601165376280681230e+05
1.153270000000000017e+01 9.646404314318767283e+05
1.157939999999999969e+01 9.691932026792454999e+05
1.162609999999999921e+01 9.700591853094424587e+05
1.167280000000000051e+01 9.661023146942949388e+05
1.171950000000000003e+01 9.633423662850565743e+05
1.176619999999999955e+01 9.629612827985495096e+05
1.181290000000000084e+01 9.566436697442877339e+05
1.185960000000000036e+01 9.428284382761693560e+05
1.190629999999999988e+01 9.348815747906178003e+05
1.195299999999999940e+01 9.374737096562818624e+05
1.199959999999999916e+01 9.404802644155462040e+05
1.204630000000000045e+01 9.376897158255929826e+05
1.209299999999999997e+01 9.308427155923701357e+05
1.213969999999999949e+01 9.211554569120766828e+05
1.218640000000000079e+01 9.096326507930763764e+05
1.223310000000000031e+01 9.007114471779258456e+05
1.227979999999999983e+01 8.976185145816395525e+05
1.232649999999999935e+01 9.025608308426807635e+05
1.237320000000000064e+01 9.162681701598676154e+05
1.241990000000000016e+01 9.347431551299102139e+05
1.246659999999999968e+01 9.523403068119273521e+05
1.251329999999999920e+01 9.653187770612247987e+05
1.255990000000000073e+01 9.778789808881228091e+05
1.260660000000000025e+01 9.974179976976366015e+05
1.265329999999999977e+01 1.020181551786714699e+06
1.269999999999999929e+01 1.032516647015776718e+06
1.274670000000000059e+01 1.037470528362350189e+06
1.279340000000000011e+01 1.050037959705653600e+06
1.284009999999999962e+01 1.066856359769080067e+06
1.288679999999999914e+01 1.063809717636837624e+06
1.293350000000000044e+01 1.042064081037277589e+06
1.298019999999999996e+01 1.028281303851080011e+06
1.302689999999999948e+01 1.031802869632788119e+06
1.307349999999999923e+01 1.043495296178560704e+06
1.312020000000000053e+01 1.065194179425272858e+06
1.316690000000000005e+01 1.100133650366535643e+06
1.321359999999999957e+01 1.139138138807966374e+06
1.326030000000000086e+01 1.175877747055596439e+06
1.330700000000000038e+01 1.220574980657256674e+06
1.335369999999999990e+01 1.261964219223846681e+06
1.340039999999999942e+01 1.288484778745112242e+06
1.344710000000000072e+01 1.321910521602127003e+06
1.349380000000000024e+01 1.367052217471151380e+06
1.354049999999999976e+01 1.412472177506871289e+06
1.358709999999999951e+01 1.456523433882185258e+06
1.363380000000000081e+01 1.480746980262988014e+06
1.368050000000000033e+01 1.470694370378666325e+06
1.372719999999999985e+01 1.447322410018121358e+06
1.377389999999999937e+01 1.428068660584137775e+06
1.382060000000000066e+01 1.406357614854581188e+06
1.386730000000000018e+01 1.391792545975996880e+06
1.391399999999999970e+01 1.413843913779827300e+06
1.396069999999999922e+01 1.487121388917801902e+06
1.400740000000000052e+01 1.582913462499439484e+06
1.405410000000000004e+01 1.655038320074491668e+06
1.410079999999999956e+01 1.697479084392542252e+06
1.414739999999999931e+01 1.726230512171300128e+06
1.419410000000000061e+01 1.767577763061108766e+06
1.424080000000000013e+01 1.825692249380785972e+06
1.428749999999999964e+01 1.873205404953502817e+06
1.433419999999999916e+01 1.898134517526323674e+06
1.438090000000000046e+01 1.918797344461517176e+06
1.442759999999999998e+01 1.949135373617075384e+06
1.447429999999999950e+01 1.995131086876830086e+06
1.452100000000000080e+01 2.055402035260353936e+06
1.456770000000000032e+01 2.097994999569579028e+06
1.461439999999999984e+01 2.096823580240974668e+06
1.466099999999999959e+01 2.069312633455662057e+06
1.470770000000000088e+01 2.043874329936025199e+06
1.475440000000000040e+01 2.029345286208981415e+06
1.480109999999999992e+01 2.015569418464214308e+06
1.484779999999999944e+01 1.991823054587231250e+06
1.489450000000000074e+01 1.954701744351827074e+06
1.494120000000000026e+01 1.905700018133435398e+06
1.498789999999999978e+01 1.858809294000524562e+06
1.503459999999999930e+01 1.823199337465941673e+06
1.508130000000000059e+01 1.792770192036999157e+06
1.512800000000000011e+01 1.760675388736828463e+06
1.517469999999999963e+01 1.729603313515624031e+06
1.522129999999999939e+01 1.703508280829345575e+06
1.526800000000000068e+01 1.679135920244949637e+06
1.531470000000000020e+01 1.650124415449142922e+06
1.536139999999999972e+01 1.607052051247735508e+06
1.540809999999999924e+01 1.551801858396708732e+06
1.545480000000000054e+01 1.499721336168512003e+06
1.550150000000000006e+01 1.460897312044942286e+06
1.554819999999999958e+01 1.435292415596415522e+06
1.559490000000000087e+01 1.420567918940753210e+06
1.564160000000000039e+01 1.406385637340492802e+06
1.568829999999999991e+01 1.386236370887669502e+06
1.573489999999999966e+01 1.365716088138588006e+06
1.578159999999999918e+01 1.346080574394165305e+06
1.582830000000000048e+01 1.327940751035969704e+06
1.587500000000000000e+01 1.315827218442453071e+06
1.592169999999999952e+01 1.308298691580984509e+06
1.596840000000000082e+01 1.307341238592861686e+06
1.601510000000000034e+01 1.314261046092532342e+06
1.606180000000000163e+01 1.324756132650352549e+06
1.610849999999999937e+01 1.344001876371554565e+06
1.615520000000000067e+01 1.377453771597965155e+06
1.620189999999999841e+01 1.413710490691010142e+06
1.624849999999999994e+01 1.443263440251862630e+06
1.629520000000000124e+01 1.471372256002771435e+06
1.634189999999999898e+01 1.500075877608008916e+06
1.638860000000000028e+01 1.515016820094534196e+06
1.643530000000000157e+01 1.512838155289331218e+06
1.648199999999999932e+01 1.501245895577071700e+06
1.652870000000000061e+01 1.474343847831450170e+06
1.657539999999999836e+01 1.436103308934885543e+06
1.662209999999999965e+01 1.398017933741926914e+06
1.666880000000000095e+01 1.358907566886536544e+06
1.671549999999999869e+01 1.315584079153420869e+06
1.676219999999999999e+01 1.276886866025039228e+06
1.680880000000000152e+01 1.248608417275710730e+06
1.685549999999999926e+01 1.229598788438105257e+06
1.690220000000000056e+01 1.222511387762918137e+06
1.694889999999999830e+01 1.228703324868405005e+06
1.699559999999999960e+01 1.239815589660715312e+06
1.704230000000000089e+01 1.246742670765455114e+06
1.708899999999999864e+01 1.251032641246184707e+06
1.713569999999999993e+01 1.257850802741285414e+06
1.718240000000000123e+01 1.264277396865378134e+06
1.722909999999999897e+01 1.267139999445712427e+06
1.727580000000000027e+01 1.268784739850783488e+06
1.732239999999999824e+01 1.268559831527960720e+06
1.736909999999999954e+01 1.268269146263846429e+06
1.741580000000000084e+01 1.271347776615520706e+06
1.746249999999999858e+01 1.276941826711246511e+06
1.750919999999999987e+01 1.280215560437732609e+06
1.755590000000000117e+01 1.273545750804790994e+06
1.760259999999999891e+01 1.258074739712990355e+06
1.764930000000000021e+01 1.238868121901473962e+06
1.769600000000000151e+01 1.216749728842124110e+06
1.774269999999999925e+01 1.192682815738626523e+06
1.778940000000000055e+01 1.169457050683937967e+06
1.783609999999999829e+01 1.146928878902569180e+06
1.788269999999999982e+01 1.123538450139473658e+06
1.792940000000000111e+01 1.103108116216846276e+06
1.797609999999999886e+01 1.093454577123451279e+06
1.802280000000000015e+01 1.095785998063911684e+06
1.806950000000000145e+01 1.103995924183914438e+06
1.811619999999999919e+01 1.110884421863566153e+06
1.816290000000000049e+01 1.108987789613106987e+06
1.820959999999999823e+01 1.100959578847754514e+06
1.825629999999999953e+01 1.097502609846988693e+06
1.830300000000000082e+01 1.099017499339302536e+06
1.834969999999999857e+01 1.104451180304198759e+06
1.839630000000000010e+01 1.111314107272810070e+06
1.844300000000000139e+01 1.110297677040778566e+06
1.848969999999999914e+01 1.097620221203238005e+06
1.853640000000000043e+01 1.079734312951000873e+06
1.858310000000000173e+01 1.065351219400208676e+06
