# energy(eV) alpha
0.000000000000000000e+00 0.000000000000000000e+00
4.719999999999999890e-02 2.068936946668680665e+00
9.450000000000000067e-02 8.283302657587123363e+00
1.416999999999999926e-01 1.862634077517965281e+01
1.890000000000000013e-01 3.311384291487402720e+01
2.361999999999999933e-01 5.208938500044393294e+01
2.833999999999999853e-01 7.555492024647942628e+01
3.306999999999999940e-01 1.033733830589681162e+02
3.779000000000000137e-01 1.363870139344223560e+02
4.252000000000000224e-01 1.739548063594203882e+02
4.723999999999999866e-01 2.171178283420422872e+02
5.197000000000000508e-01 2.654391413224247458e+02
5.668999999999999595e-01 3.202689190517129418e+02
6.140999999999999792e-01 3.810782700853947063e+02
6.613999999999999879e-01 4.486507352487423077e+02
7.086000000000000076e-01 5.242673865688427668e+02
7.559000000000000163e-01 6.073678503202230559e+02
8.031000000000000361e-01 6.986934876604130977e+02
8.502999999999999448e-01 8.013984315061865118e+02
8.975999999999999535e-01 9.127968999560756629e+02
9.447999999999999732e-01 1.037395794848408968e+03
9.920999999999999819e-01 1.176276248522864080e+03
1.039299999999999891e+00 1.330001600398941264e+03
1.086500000000000021e+00 1.500307058127448727e+03
1.133799999999999919e+00 1.692647460091160156e+03
1.181000000000000050e+00 1.907096357337041127e+03
1.228299999999999947e+00 2.147970107633004773e+03
1.275500000000000078e+00 2.422179333029630016e+03
1.322699999999999987e+00 2.734792862116965807e+03
1.370000000000000107e+00 3.095356116078862215e+03
1.417200000000000015e+00 3.513395090316380447e+03
1.464499999999999913e+00 4.005537523878244883e+03
1.511700000000000044e+00 4.592999048516739094e+03
1.558999999999999941e+00 5.307505678668736437e+03
1.606200000000000072e+00 6.195660893599669180e+03
1.653399999999999981e+00 7.336727432969681104e+03
1.700700000000000101e+00 8.855160796392965494e+03
1.747900000000000009e+00 1.098491832597757275e+04
1.795199999999999907e+00 1.415370276803755041e+04
1.842400000000000038e+00 1.909712311364399284e+04
1.889599999999999946e+00 2.637326129178190604e+04
1.936900000000000066e+00 3.347523062864652456e+04
1.984099999999999975e+00 3.622597505160814762e+04
2.031400000000000095e+00 3.893504563641531422e+04
2.078599999999999781e+00 4.747782855777943769e+04
2.125799999999999912e+00 6.408753863558479497e+04
2.173099999999999810e+00 8.247143676238886837e+04
2.220299999999999940e+00 8.900641641807778797e+04
2.267599999999999838e+00 8.576528298186043685e+04
2.314799999999999969e+00 8.007566929561411962e+04
2.362099999999999866e+00 8.097817475834023207e+04
2.409299999999999997e+00 9.528760037546681997e+04
2.456500000000000128e+00 1.273297312526035676e+05
2.503800000000000026e+00 1.781673734074250679e+05
2.551000000000000156e+00 2.448446397665423865e+05
2.598300000000000054e+00 3.118175707884515868e+05
2.645500000000000185e+00 3.237837090403081966e+05
2.692699999999999871e+00 2.770114952992993640e+05
2.740000000000000213e+00 2.156834144385675318e+05
2.787199999999999900e+00 1.708204804461021558e+05
2.834499999999999797e+00 1.505097589207354176e+05
2.881699999999999928e+00 1.478459065315895714e+05
2.928900000000000059e+00 1.461281554185111308e+05
2.976199999999999957e+00 1.375751252122599108e+05
3.023400000000000087e+00 1.274777083267138805e+05
3.070699999999999985e+00 1.215383291704828880e+05
3.117900000000000116e+00 1.140221424044597370e+05
3.165200000000000014e+00 1.046747669428692898e+05
3.212400000000000144e+00 9.662662891548557673e+04
3.259599999999999831e+00 9.451385803577667684e+04
3.306900000000000173e+00 1.025115441050713416e+05
3.354099999999999859e+00 1.236975935088040424e+05
3.401400000000000201e+00 1.590121934852765116e+05
3.448599999999999888e+00 1.965499582595559477e+05
3.495800000000000018e+00 2.114397061191263201e+05
3.543099999999999916e+00 2.107026498053163232e+05
3.590300000000000047e+00 2.053578161347213609e+05
3.637599999999999945e+00 1.985880253102282295e+05
3.684800000000000075e+00 1.919850621016197838e+05
3.732000000000000206e+00 1.885007668185263756e+05
3.779300000000000104e+00 1.918812135522900790e+05
3.826499999999999790e+00 1.961657170044908999e+05
3.873800000000000132e+00 1.940665316900460457e+05
3.920999999999999819e+00 1.840989407532335317e+05
3.968199999999999950e+00 1.749176267174213135e+05
4.015500000000000291e+00 1.683443162575432507e+05
4.062700000000000422e+00 1.650199546726617555e+05
4.110000000000000320e+00 1.667233884373887558e+05
4.157199999999999562e+00 1.717221803280468448e+05
4.204500000000000348e+00 1.806035548927568016e+05
4.251699999999999591e+00 1.956215302242098842e+05
4.298899999999999721e+00 2.186466582357893058e+05
4.346199999999999619e+00 2.396620060633344401e+05
4.393399999999999750e+00 2.507160629723135498e+05
4.440699999999999648e+00 2.645040992995241540e+05
4.487899999999999778e+00 2.877837679043082171e+05
4.535099999999999909e+00 3.077831732614681823e+05
4.582399999999999807e+00 3.223267110816384084e+05
4.629599999999999937e+00 3.347285899646063917e+05
4.676899999999999835e+00 3.380265952533063828e+05
4.724099999999999966e+00 3.381455081378243049e+05
4.771300000000000097e+00 3.491512299216648098e+05
4.818599999999999994e+00 3.677425445465453668e+05
4.865800000000000125e+00 3.853816169148971676e+05
4.913100000000000023e+00 4.003797330820813077e+05
4.960300000000000153e+00 4.100222858478265116e+05
5.007600000000000051e+00 4.119345233598551713e+05
5.054800000000000182e+00 4.012852234776531113e+05
5.102000000000000313e+00 3.859077205820110394e+05
5.149300000000000210e+00 3.735807589372510556e+05
5.196500000000000341e+00 3.616759094816748402e+05
5.243800000000000239e+00 3.495387762189392233e+05
5.291000000000000369e+00 3.419700642883813125e+05
5.338199999999999612e+00 3.389889824756511371e+05
5.385500000000000398e+00 3.415515372059663641e+05
5.432699999999999640e+00 3.566889439659378841e+05
5.480000000000000426e+00 3.827388338028663420e+05
5.527199999999999669e+00 4.010638416520018363e+05
5.574399999999999800e+00 4.025488265546908951e+05
5.621699999999999697e+00 3.954522577761324355e+05
5.668899999999999828e+00 3.890322585450053448e+05
5.716199999999999726e+00 3.872189034269537660e+05
5.763399999999999856e+00 3.890808523271171725e+05
5.810699999999999754e+00 3.897787077065897756e+05
5.857899999999999885e+00 3.817816576473718742e+05
5.905100000000000016e+00 3.706719724543703487e+05
5.952399999999999913e+00 3.610701278425758355e+05
5.999600000000000044e+00 3.589212688385987421e+05
6.046899999999999942e+00 3.662067369149461156e+05
6.094100000000000072e+00 3.837821897869745153e+05
6.141300000000000203e+00 4.065987619492715457e+05
6.188600000000000101e+00 4.326679994310433394e+05
6.235800000000000232e+00 4.606121553802640410e+05
6.283100000000000129e+00 4.840526875164743396e+05
6.330300000000000260e+00 4.993825551119085867e+05
6.377500000000000391e+00 5.108143410738879465e+05
6.424800000000000288e+00 5.241061078564397176e+05
6.472000000000000419e+00 5.355375057196723064e+05
6.519300000000000317e+00 5.420543306997519685e+05
6.566499999999999559e+00 5.481693905651425011e+05
6.613699999999999690e+00 5.571135155734668951e+05
6.660999999999999588e+00 5.531075723688934231e+05
6.708199999999999719e+00 5.273299918433036655e+05
6.755499999999999616e+00 4.923377392828544835e+05
6.802699999999999747e+00 4.616237210875176243e+05
6.849999999999999645e+00 4.435806384805577109e+05
6.897199999999999775e+00 4.390956974690135685e+05
6.944399999999999906e+00 4.456523304128550226e+05
6.991699999999999804e+00 4.615400244609497022e+05
7.038899999999999935e+00 4.849837060585010331e+05
7.086199999999999832e+00 5.091358741702985135e+05
7.133399999999999963e+00 5.275463197102699196e+05
7.180600000000000094e+00 5.400108698528143577e+05
7.227899999999999991e+00 5.458779930511657149e+05
7.275100000000000122e+00 5.444662114022108726e+05
7.322400000000000020e+00 5.384695025139414938e+05
7.369600000000000151e+00 5.352962802160752472e+05
7.416800000000000281e+00 5.360395607103735674e+05
7.464100000000000179e+00 5.382188174274179619e+05
7.511300000000000310e+00 5.403419194317932706e+05
7.558600000000000207e+00 5.444920240203348221e+05
7.605800000000000338e+00 5.574277003436114173e+05
7.653100000000000236e+00 5.853016565170090180e+05
7.700300000000000367e+00 6.264258864524317905e+05
7.747499999999999609e+00 6.699751408106572926e+05
7.794800000000000395e+00 7.009188372128024930e+05
7.841999999999999638e+00 7.157291812829698902e+05
7.889300000000000423e+00 7.180620377732254565e+05
7.936499999999999666e+00 7.138307056491622934e+05
7.983699999999999797e+00 7.059911064265258610e+05
8.031000000000000583e+00 6.964356073009007378e+05
8.078200000000000713e+00 6.902899594908085419e+05
8.125500000000000611e+00 6.871369480028769467e+05
8.172700000000000742e+00 6.882296577220857143e+05
8.219900000000000873e+00 6.954151981211112579e+05
8.267200000000000770e+00 7.031090278739756905e+05
8.314399999999999125e+00 7.140917624330024701e+05
8.361700000000000799e+00 7.315659872043699725e+05
8.408899999999999153e+00 7.537656415557170985e+05
8.456099999999999284e+00 7.724374516637235647e+05
8.503399999999999181e+00 7.863170799836497754e+05
8.550599999999999312e+00 8.035228738063342171e+05
8.597899999999999210e+00 8.281315655529665528e+05
8.645099999999999341e+00 8.606757152824652148e+05
8.692399999999999238e+00 8.886188473290002439e+05
8.739599999999999369e+00 8.995210477811759338e+05
8.786799999999999500e+00 8.964571261468952289e+05
8.834099999999999397e+00 8.813403439977557864e+05
8.881299999999999528e+00 8.572347117714957567e+05
8.928599999999999426e+00 8.295447266113909427e+05
8.975799999999999557e+00 8.003168566113690613e+05
9.022999999999999687e+00 7.746892253351528198e+05
9.070299999999999585e+00 7.547472777595141670e+05
9.117499999999999716e+00 7.391113478334133979e+05
9.164799999999999613e+00 7.192712171860573580e+05
9.211999999999999744e+00 6.897775357784099178e+05
9.259199999999999875e+00 6.586703121746134711e+05
9.306499999999999773e+00 6.317597355294753797e+05
9.353699999999999903e+00 6.065145007419408066e+05
9.400999999999999801e+00 5.846183391492076917e+05
9.448199999999999932e+00 5.695710973611013032e+05
9.495499999999999829e+00 5.578867834326175507e+05
9.542699999999999960e+00 5.472096833984289551e+05
9.589900000000000091e+00 5.420773851683661342e+05
9.637199999999999989e+00 5.455850817667234223e+05
9.684400000000000119e+00 5.564708917418477358e+05
9.731700000000000017e+00 5.691642040869543562e+05
9.778900000000000148e+00 5.786013087805872783e+05
9.826100000000000279e+00 5.830929045722672017e+05
9.873400000000000176e+00 5.867175436407817760e+05
9.920600000000000307e+00 5.964935557015431114e+05
9.967900000000000205e+00 6.124035051205246709e+05
1.001510000000000034e+01 6.292188536352560623e+05
1.006230000000000047e+01 6.430536818326881621e+05
1.010960000000000036e+01 6.604871262016686378e+05
1.015680000000000049e+01 6.860418756187171675e+05
1.020410000000000039e+01 7.117257086887964979e+05
1.025130000000000052e+01 7.294011307151708752e+05
1.029860000000000042e+01 7.365766267054114724e+05
1.034580000000000055e+01 7.392117773525037337e+05
1.039300000000000068e+01 7.453860809391346993e+05
1.044030000000000058e+01 7.514065044056402985e+05
1.048750000000000071e+01 7.547526970494335983e+05
1.053480000000000061e+01 7.550193366272440180e+05
1.058200000000000074e+01 7.549756369055174291e+05
1.062920000000000087e+01 7.651716551338923164e+05
1.067650000000000077e+01 7.873811357346512377e+05
1.072369999999999912e+01 8.120498879032426048e+05
1.077100000000000080e+01 8.301268732653070474e+05
1.081819999999999915e+01 8.369842573010245105e+05
1.086539999999999928e+01 8.400212478234722512e+05
1.091269999999999918e+01 8.495243194696427090e+05
1.095989999999999931e+01 8.611317440230755601e+05
1.100719999999999921e+01 8.741127479775624815e+05
1.105439999999999934e+01 8.958358205971757416e+05
1.110159999999999947e+01 9.242169544326545438e+05
1.114889999999999937e+01 9.531307511819982901e+05
1.119609999999999950e+01 9.724723910860533360e+05
1.124339999999999939e+01 9.767790487167338142e+05
1.129059999999999953e+01 9.714072322680093348e+05
1.133789999999999942e+01 9.630630859590277541e+05
1.138509999999999955e+01 9.563380057932311902e+05
1.143229999999999968e+01 9.545992794689262519e+05
1.147959999999999958e+01 9.555437680767485872e+05
1.152679999999999971e+01 9.475985915406948188e+05
1.157409999999999961e+01 9.290682252709298627e+05
1.162129999999999974e+01 9.092806698314631358e+05
1.166849999999999987e+01 8.935483397931971122e+05
1.171579999999999977e+01 8.861691095818853937e+05
1.176299999999999990e+01 8.875786609756357502e+05
1.181029999999999980e+01 8.967556005124005023e+05
1.185749999999999993e+01 9.162503913993110182e+05
1.190470000000000006e+01 9.418097113394850167e+05
1.195199999999999996e+01 9.611312171636186540e+05
1.199920000000000009e+01 9.695466211470671697e+05
1.204649999999999999e+01 9.678061751918810187e+05
1.209370000000000012e+01 9.615784182545603253e+05
1.214100000000000001e+01 9.635708703673962737e+05
1.218820000000000014e+01 9.703344654267702717e+05
1.223540000000000028e+01 9.704409712455248227e+05
1.228270000000000017e+01 9.668406011014994001e+05
1.232990000000000030e+01 9.655299432569228811e+05
1.237720000000000020e+01 9.622954240456753178e+05
1.242440000000000033e+01 9.573407592936801957e+05
1.247160000000000046e+01 9.575078053050407907e+05
1.251890000000000036e+01 9.715683767830092693e+05
1.256610000000000049e+01 1.001538036021440290e+06
1.261340000000000039e+01 1.035051802722491208e+06
1.266060000000000052e+01 1.060695437321360456e+06
1.270780000000000065e+01 1.080606493994411547e+06
1.275510000000000055e+01 1.111510579125402961e+06
1.280230000000000068e+01 1.140560571000992088e+06
1.284960000000000058e+01 1.138612306444146205e+06
1.289680000000000071e+01 1.118410253062983276e+06
1.294400000000000084e+01 1.102721327957203845e+06
1.299130000000000074e+01 1.100527441868606955e+06
1.303850000000000087e+01 1.112739466545785544e+06
1.308580000000000076e+01 1.133963383118526079e+06
1.313299999999999912e+01 1.171159566159593174e+06
1.318030000000000079e+01 1.218008285265542800e+06
1.322749999999999915e+01 1.251553265177724417e+06
1.327469999999999928e+01 1.276670935431974940e+06
1.332199999999999918e+01 1.305978818486045348e+06
1.336919999999999931e+01 1.324645155083471909e+06
1.341649999999999920e+01 1.335260618589436868e+06
1.346369999999999933e+01 1.357199797983735800e+06
1.351089999999999947e+01 1.395733740207890747e+06
1.355819999999999936e+01 1.459635239919040352e+06
1.360539999999999949e+01 1.540934881788634229e+06
1.365269999999999939e+01 1.598819330276198685e+06
1.369989999999999952e+01 1.615976169834546046e+06
1.374709999999999965e+01 1.614650637631227961e+06
1.379439999999999955e+01 1.600195165755756199e+06
1.384159999999999968e+01 1.573245702990157064e+06
1.388889999999999958e+01 1.554067901817816542e+06
1.393609999999999971e+01 1.574399075841721846e+06
1.398339999999999961e+01 1.651394489805363351e+06
1.403059999999999974e+01 1.737750379709751345e+06
1.407779999999999987e+01 1.767290077870331472e+06
1.412509999999999977e+01 1.748934842253905954e+06
1.417229999999999990e+01 1.731693100457271328e+06
1.421959999999999980e+01 1.732857934811363695e+06
1.426679999999999993e+01 1.758774568820785033e+06
1.431400000000000006e+01 1.797052918405469041e+06
1.436129999999999995e+01 1.835078316143951146e+06
1.440850000000000009e+01 1.877762745174174197e+06
1.445579999999999998e+01 1.935221370072152466e+06
1.450300000000000011e+01 1.994513993945229566e+06
1.455020000000000024e+01 2.040923274910281878e+06
1.459750000000000014e+01 2.083092630251436494e+06
1.464470000000000027e+01 2.108593773508926388e+06
1.469200000000000017e+01 2.098386963031684514e+06
1.473920000000000030e+01 2.066614608046110719e+06
1.478650000000000020e+01 2.036566184737003408e+06
1.483370000000000033e+01 2.011111844308805186e+06
1.488090000000000046e+01 1.984277888923762133e+06
1.492820000000000036e+01 1.958537791778146755e+06
1.497540000000000049e+01 1.920236659653117415e+06
1.502270000000000039e+01 1.864496501941179857e+06
1.506990000000000052e+01 1.810879519046354340e+06
1.511710000000000065e+01 1.781881403044678969e+06
1.516440000000000055e+01 1.772741018695635488e+06
1.521160000000000068e+01 1.763889964650332229e+06
1.525890000000000057e+01 1.749883099605544005e+06
1.530610000000000070e+01 1.734024348963181255e+06
1.535330000000000084e+01 1.712998918025312247e+06
1.540060000000000073e+01 1.689292124384917086e+06
1.544780000000000086e+01 1.659175165073994314e+06
1.549510000000000076e+01 1.617030601390951779e+06
1.554229999999999912e+01 1.571072897802154301e+06
1.558949999999999925e+01 1.529930851167727029e+06
1.563679999999999914e+01 1.497431198918493697e+06
1.568399999999999928e+01 1.476286943843249930e+06
1.573129999999999917e+01 1.460441308929707622e+06
1.577849999999999930e+01 1.436438003797590500e+06
1.582579999999999920e+01 1.406787098928503692e+06
1.587299999999999933e+01 1.381704192636878230e+06
1.592019999999999946e+01 1.364443250794277526e+06
1.596749999999999936e+01 1.352170232930344762e+06
1.601470000000000127e+01 1.343200517129064538e+06
1.606200000000000117e+01 1.339464638527574483e+06
1.610920000000000130e+01 1.341744813965013018e+06
1.615640000000000143e+01 1.348214377919701161e+06
1.620370000000000132e+01 1.357333672299261671e+06
1.625090000000000146e+01 1.368954477076500189e+06
1.629820000000000135e+01 1.381767093601474538e+06
1.634540000000000148e+01 1.389157693397653755e+06
1.639260000000000161e+01 1.388507608422410907e+06
1.643990000000000151e+01 1.385863353007321479e+06
1.648710000000000164e+01 1.381682784934540279e+06
1.653440000000000154e+01 1.375732598979612347e+06
1.658160000000000167e+01 1.371391834910373669e+06
1.662890000000000157e+01 1.366013514966186369e+06
1.667610000000000170e+01 1.353893366898365086e+06
1.672329999999999828e+01 1.335311989999002311e+06
1.677060000000000173e+01 1.311745651680706535e+06
1.681779999999999831e+01 1.282245180804038653e+06
1.686510000000000176e+01 1.250884470984264044e+06
1.691229999999999833e+01 1.222804852317714831e+06
1.695949999999999847e+01 1.193418672358562937e+06
1.700679999999999836e+01 1.164279720475219889e+06
1.705399999999999849e+01 1.147503017232129583e+06
1.710129999999999839e+01 1.141904131208329694e+06
1.714849999999999852e+01 1.134786638758874731e+06
1.719569999999999865e+01 1.124762457090795506e+06
1.724299999999999855e+01 1.115881473857570440e+06
1.729019999999999868e+01 1.104456309183195932e+06
1.733749999999999858e+01 1.089100895768120652e+06
1.738469999999999871e+01 1.078368694924466778e+06
1.743199999999999861e+01 1.079699788095890312e+06
1.747919999999999874e+01 1.096267170106314588e+06
1.752639999999999887e+01 1.116037549200252630e+06
1.757369999999999877e+01 1.132436377152055036e+06
1.762089999999999890e+01 1.154559433976606233e+06
1.766819999999999879e+01 1.174529141616343288e+06
1.771539999999999893e+01 1.183463377709322143e+06
1.776259999999999906e+01 1.187950903516576625e+06
1.780989999999999895e+01 1.195221665528778220e+06
1.785709999999999908e+01 1.205399161691756686e+06
1.790439999999999898e+01 1.220332125079893973e+06
1.795159999999999911e+01 1.229071097919899272e+06
1.799879999999999924e+01 1.217174547519908287e+06
1.804609999999999914e+01 1.186492213814352173e+06
1.809329999999999927e+01 1.146946024212699849e+06
1.814059999999999917e+01 1.113866778242317494e+06
1.818779999999999930e+01 1.093376846779869869e+06
1.823499999999999943e+01 1.076580324674832402e+06
1.828229999999999933e+01 1.059251665560578695e+06
1.832949999999999946e+01 1.050325417434929637e+06
1.837679999999999936e+01 1.051721960254153702e+06
1.842399999999999949e+01 1.055074669259526068e+06
1.847129999999999939e+01 1.052676665284041781e+06
1.851849999999999952e+01 1.044598540045194677e+06
1.856569999999999965e+01 1.031305837057611207e+06
1.861299999999999955e+01 1.015642758868192672e+06
1.866019999999999968e+01 9.990681472455308540e+05
1.870749999999999957e+01 9.862119856573283905e+05
1.875469999999999970e+01 9.829371019892519107e+05
1.880189999999999984e+01 9.853612375309689669e+05
