# energy(eV) alpha
0.000000000000000000e+00 0.000000000000000000e+00
4.569999999999999757e-02 2.764327426915678121e-01
9.139999999999999514e-02 1.105711277675350157e+00
1.370999999999999996e-01 2.487761764540941556e+00
1.827999999999999903e-01 4.422398827489920414e+00
2.285000000000000087e-01 6.909465068337839355e+00
2.741999999999999993e-01 9.948744149774148227e+00
3.199000000000000177e-01 1.353990023425252254e+01
3.655999999999999805e-01 1.768256503706519922e+01
4.112999999999999989e-01 2.237644438233920496e+01
4.570000000000000173e-01 2.762114618216877560e+01
5.028000000000000247e-01 3.342229286684423784e+01
5.484999999999999876e-01 3.976685676043080520e+01
5.941999999999999504e-01 4.785692170568491832e+01
6.399000000000000243e-01 5.603487086526978800e+01
6.855999999999999872e-01 6.416163537582599474e+01
7.312999999999999501e-01 7.283531556054188627e+01
7.770000000000000240e-01 8.205421947992152809e+01
8.226999999999999869e-01 9.181832742436944272e+01
8.683999999999999497e-01 1.021256183469356529e+02
9.141000000000000236e-01 1.148132007463188842e+02
9.597999999999999865e-01 1.272599399384855445e+02
1.005500000000000060e+00 1.393291939464985774e+02
1.051199999999999912e+00 1.519366767548463883e+02
1.096899999999999986e+00 1.650838021098466015e+02
1.142600000000000060e+00 1.822022409541268360e+02
1.188299999999999912e+00 1.965559644563248582e+02
1.233999999999999986e+00 2.114419923758159143e+02
1.279700000000000060e+00 2.307036282403379630e+02
1.325399999999999912e+00 2.467857132579594861e+02
1.371099999999999985e+00 2.661398477993705569e+02
1.416800000000000059e+00 2.847837505697202687e+02
1.462599999999999900e+00 3.055249245960867484e+02
1.508299999999999974e+00 3.254416460587141273e+02
1.554000000000000048e+00 3.490676941622203344e+02
1.599699999999999900e+00 3.686899820818644571e+02
1.645399999999999974e+00 3.937503766594906551e+02
1.691100000000000048e+00 4.179068031347056831e+02
1.736799999999999899e+00 4.410232665442637199e+02
1.782499999999999973e+00 4.682775259521400812e+02
1.828200000000000047e+00 4.963036086828527118e+02
1.873899999999999899e+00 5.250984736633491821e+02
1.919599999999999973e+00 5.527529762070864763e+02
1.965300000000000047e+00 5.830220751320803174e+02
2.011000000000000121e+00 6.140495148457836194e+02
2.056700000000000195e+00 6.478618653628159336e+02
2.102399999999999824e+00 6.804274736999154811e+02
2.148099999999999898e+00 7.137359882337517547e+02
2.193799999999999972e+00 7.477833197283322306e+02
2.239500000000000046e+00 7.869731229143889095e+02
2.285200000000000120e+00 8.248152217118660019e+02
2.330900000000000194e+00 8.657596376453367384e+02
2.376599999999999824e+00 9.052558886072096129e+02
2.422400000000000109e+00 9.503446362819680644e+02
2.468100000000000183e+00 9.939410249805888498e+02
2.513799999999999812e+00 1.040866612385344979e+03
2.559499999999999886e+00 1.083714923924383129e+03
2.605199999999999960e+00 1.132428838038415051e+03
2.650900000000000034e+00 1.187258722775851311e+03
2.696600000000000108e+00 1.237897882829476430e+03
2.742300000000000182e+00 1.292142425608714348e+03
2.787999999999999812e+00 1.350065627940308332e+03
2.833699999999999886e+00 1.406295368210847073e+03
2.879399999999999959e+00 1.469095380918122601e+03
2.925100000000000033e+00 1.530167949984384904e+03
2.970800000000000107e+00 1.595121660689200326e+03
3.016500000000000181e+00 1.664100648230684556e+03
3.062199999999999811e+00 1.731277636076369163e+03
3.107899999999999885e+00 1.805489108779607932e+03
3.153599999999999959e+00 1.883969274811043078e+03
3.199300000000000033e+00 1.963715313101433594e+03
3.245000000000000107e+00 2.044689917752331212e+03
3.290700000000000180e+00 2.126909515737784204e+03
3.336399999999999810e+00 2.213542043786520480e+03
3.382200000000000095e+00 2.304730085719382714e+03
3.427900000000000169e+00 2.400446569625753455e+03
3.473599999999999799e+00 2.500825448953974956e+03
3.519299999999999873e+00 2.605969724388893610e+03
3.564999999999999947e+00 2.715982427751958767e+03
3.610700000000000021e+00 2.827503415262426188e+03
3.656400000000000095e+00 2.950841858357408000e+03
3.702100000000000168e+00 3.075850505878468539e+03
3.747799999999999798e+00 3.202467110342035994e+03
3.793499999999999872e+00 3.337800355420823507e+03
3.839199999999999946e+00 3.481992949230601880e+03
3.884900000000000020e+00 3.624301774732329704e+03
3.930600000000000094e+00 3.786614807371929146e+03
3.976300000000000168e+00 3.954524204461395584e+03
4.022000000000000242e+00 4.124366953614132399e+03
4.067700000000000315e+00 4.307323644987063744e+03
4.113400000000000389e+00 4.503694463234790419e+03
4.159099999999999575e+00 4.713641716475722205e+03
4.204799999999999649e+00 4.925703524189752898e+03
4.250499999999999723e+00 5.163244591827568911e+03
4.296199999999999797e+00 5.403055142593861092e+03
4.341999999999999638e+00 5.668870734929182618e+03
4.387699999999999712e+00 5.948949800649653298e+03
4.433399999999999785e+00 6.251405154307017256e+03
4.479099999999999859e+00 6.584588886491608719e+03
4.524799999999999933e+00 6.932614744588594476e+03
4.570500000000000007e+00 7.319908503452934383e+03
4.616200000000000081e+00 7.742813040606037248e+03
4.661900000000000155e+00 8.205646412912179585e+03
4.707600000000000229e+00 8.725257855573403504e+03
4.753300000000000303e+00 9.306226140313938231e+03
4.799000000000000377e+00 9.969593975666201004e+03
4.844699999999999562e+00 1.075389505733019178e+04
4.890399999999999636e+00 1.169335138595042918e+04
4.936099999999999710e+00 1.286080059202870507e+04
4.981799999999999784e+00 1.440645983773729131e+04
5.027499999999999858e+00 1.654724835302594147e+04
5.073199999999999932e+00 1.962244469733429651e+04
5.118900000000000006e+00 2.358303418633270849e+04
5.164600000000000080e+00 2.679304991772829817e+04
5.210300000000000153e+00 2.766491863077140442e+04
5.256000000000000227e+00 2.854189003589020649e+04
5.301800000000000068e+00 3.169130916608676853e+04
5.347500000000000142e+00 3.820359339696785901e+04
5.393200000000000216e+00 4.839912084462057828e+04
5.438900000000000290e+00 5.809177767272062920e+04
5.484600000000000364e+00 6.055740646223409567e+04
5.530300000000000438e+00 5.986548007365054946e+04
5.575999999999999623e+00 6.215932334750144219e+04
5.621699999999999697e+00 6.865229743345457246e+04
5.667399999999999771e+00 7.935565818567953829e+04
5.713099999999999845e+00 9.320456432305810449e+04
5.758799999999999919e+00 1.039360579930673848e+05
5.804499999999999993e+00 1.077107814668076317e+05
5.850200000000000067e+00 1.101443393007316045e+05
5.895900000000000141e+00 1.168828546958840743e+05
5.941600000000000215e+00 1.281957705747212749e+05
5.987300000000000288e+00 1.395318021764854202e+05
6.033000000000000362e+00 1.505019022537697456e+05
6.078700000000000436e+00 1.667050974984595377e+05
6.124399999999999622e+00 1.886679293779439467e+05
6.170099999999999696e+00 2.129069428797865403e+05
6.215799999999999770e+00 2.380098129619703977e+05
6.261599999999999611e+00 2.749605637632499565e+05
6.307299999999999685e+00 3.278477890322929597e+05
6.352999999999999758e+00 3.881886208866526140e+05
6.398699999999999832e+00 4.432227535034410539e+05
6.444399999999999906e+00 4.753166764062058646e+05
6.490099999999999980e+00 4.793691911724485108e+05
6.535800000000000054e+00 4.622836924360488774e+05
6.581500000000000128e+00 4.440166436305809184e+05
6.627200000000000202e+00 4.414041773880221881e+05
6.672900000000000276e+00 4.583816019999643904e+05
6.718600000000000350e+00 4.937218451868111151e+05
6.764300000000000423e+00 5.397693169421800412e+05
6.809999999999999609e+00 5.867294884049751563e+05
6.855699999999999683e+00 6.294412286523797084e+05
6.901399999999999757e+00 6.656560281490363413e+05
6.947099999999999831e+00 6.999102760923975147e+05
6.992799999999999905e+00 7.260706999161650892e+05
7.038499999999999979e+00 7.364137890836234437e+05
7.084200000000000053e+00 7.357754397744208109e+05
7.129900000000000126e+00 7.254803579955560854e+05
7.175600000000000200e+00 7.069478248555938480e+05
7.221400000000000041e+00 6.841040294851582730e+05
7.267100000000000115e+00 6.649865545001175487e+05
7.312800000000000189e+00 6.553578272051087115e+05
7.358500000000000263e+00 6.563839241494627204e+05
7.404200000000000337e+00 6.612636019819190260e+05
7.449900000000000411e+00 6.651070483034144854e+05
7.495599999999999596e+00 6.655316973968099337e+05
7.541299999999999670e+00 6.626149012374443701e+05
7.586999999999999744e+00 6.611808326168352505e+05
7.632699999999999818e+00 6.647717717930331128e+05
7.678399999999999892e+00 6.721931074601536384e+05
7.724099999999999966e+00 6.794994234900954179e+05
7.769800000000000040e+00 6.820338132864480140e+05
7.815500000000000114e+00 6.810775104315591743e+05
7.861200000000000188e+00 6.759660002117962576e+05
7.906900000000000261e+00 6.656023597607882693e+05
7.952600000000000335e+00 6.548638564658855321e+05
7.998300000000000409e+00 6.508301715054808883e+05
8.044000000000000483e+00 6.562409609954383923e+05
8.089700000000000557e+00 6.683600696407465730e+05
8.135400000000000631e+00 6.843371688381279819e+05
8.181200000000000472e+00 7.056742425970890326e+05
8.226900000000000546e+00 7.301917381805616897e+05
8.272600000000000620e+00 7.494925064634466544e+05
8.318300000000000693e+00 7.631777535460655345e+05
8.364000000000000767e+00 7.731940723562722560e+05
8.409700000000000841e+00 7.852115077012731927e+05
8.455399999999999139e+00 8.009515937015974196e+05
8.501099999999999213e+00 8.134288383446272928e+05
8.546799999999999287e+00 8.211563626673489343e+05
8.592499999999999361e+00 8.222681786378760589e+05
8.638199999999999434e+00 8.165884725932226283e+05
8.683899999999999508e+00 8.155872420289920410e+05
8.729599999999999582e+00 8.257841247222693637e+05
8.775299999999999656e+00 8.365874265229859157e+05
8.820999999999999730e+00 8.375656945452339714e+05
8.866699999999999804e+00 8.272100220771415625e+05
8.912399999999999878e+00 8.081067049630240072e+05
8.958099999999999952e+00 7.869334675776523072e+05
9.003800000000000026e+00 7.703081822513523512e+05
9.049500000000000099e+00 7.598493761303749634e+05
9.095200000000000173e+00 7.560459594831553986e+05
9.141000000000000014e+00 7.598066547225528629e+05
9.186700000000000088e+00 7.737203728379245149e+05
9.232400000000000162e+00 7.899861167919012951e+05
9.278100000000000236e+00 7.988233681984806899e+05
9.323800000000000310e+00 7.958325128186162328e+05
9.369500000000000384e+00 7.830153588080499321e+05
9.415200000000000458e+00 7.655785830189886037e+05
9.460900000000000531e+00 7.484211504211467691e+05
9.506600000000000605e+00 7.319009517485885881e+05
9.552300000000000679e+00 7.156390029150147457e+05
9.598000000000000753e+00 6.979687287184626330e+05
9.643700000000000827e+00 6.770370187615936156e+05
9.689399999999999125e+00 6.605450379262949573e+05
9.735099999999999199e+00 6.541719131203917786e+05
9.780799999999999272e+00 6.540676099995875265e+05
9.826499999999999346e+00 6.581290262952229241e+05
9.872199999999999420e+00 6.638430958479418186e+05
9.917899999999999494e+00 6.600000198222036706e+05
9.963599999999999568e+00 6.451611991180514451e+05
1.000929999999999964e+01 6.280517546138296602e+05
1.005499999999999972e+01 6.157671660422554705e+05
1.010079999999999956e+01 6.161396037456319900e+05
1.014649999999999963e+01 6.240913993800801691e+05
1.019219999999999970e+01 6.258362179384945193e+05
1.023789999999999978e+01 6.170959058209455106e+05
1.028359999999999985e+01 6.023477717917264672e+05
1.032929999999999993e+01 5.884459113686329219e+05
1.037500000000000000e+01 5.751114629242802039e+05
1.042070000000000007e+01 5.639674035026866477e+05
1.046640000000000015e+01 5.608125305220235605e+05
1.051210000000000022e+01 5.677224873208884383e+05
1.055780000000000030e+01 5.783461291278140852e+05
1.060350000000000037e+01 5.797330582602077629e+05
1.064920000000000044e+01 5.747219976579236099e+05
1.069490000000000052e+01 5.773397410554217640e+05
1.074060000000000059e+01 5.900034871638475452e+05
1.078630000000000067e+01 6.084013913593833568e+05
1.083200000000000074e+01 6.291294153440435184e+05
1.087770000000000081e+01 6.508998921076718252e+05
1.092340000000000089e+01 6.720220574817667948e+05
1.096909999999999918e+01 6.866391326273088343e+05
1.101479999999999926e+01 6.896607790585254552e+05
1.106060000000000088e+01 6.865258354192388942e+05
1.110629999999999917e+01 6.829020551148501690e+05
1.115199999999999925e+01 6.764373030705619603e+05
1.119769999999999932e+01 6.713111199771956308e+05
1.124339999999999939e+01 6.746138532045545289e+05
1.128909999999999947e+01 6.847411092898277566e+05
1.133479999999999954e+01 6.943613103657357860e+05
1.138049999999999962e+01 7.003717132853145013e+05
1.142619999999999969e+01 7.014281267089088215e+05
1.147189999999999976e+01 6.991576424755619373e+05
1.151759999999999984e+01 6.966299809922388522e+05
1.156329999999999991e+01 7.017372964946461143e+05
1.160899999999999999e+01 7.169690092586113606e+05
1.165470000000000006e+01 7.399475080323738512e+05
1.170040000000000013e+01 7.590862923928473610e+05
1.174610000000000021e+01 7.635090920385529753e+05
1.179180000000000028e+01 7.559239933319496922e+05
1.183750000000000036e+01 7.440381687893967610e+05
1.188320000000000043e+01 7.323445033936810214e+05
1.192890000000000050e+01 7.178657566076723160e+05
1.197470000000000034e+01 7.068381157372868620e+05
1.202040000000000042e+01 7.031247000780906528e+05
1.206610000000000049e+01 7.044601368769453838e+05
1.211180000000000057e+01 7.042412230829214677e+05
1.215750000000000064e+01 7.095903761225907365e+05
1.220320000000000071e+01 7.305668856430082815e+05
1.224890000000000079e+01 7.575603125341789564e+05
1.229460000000000086e+01 7.701994983236776898e+05
1.234029999999999916e+01 7.697246458884329768e+05
1.238599999999999923e+01 7.713442703295695828e+05
1.243169999999999931e+01 7.791481292279831832e+05
1.247739999999999938e+01 7.910871447426587110e+05
1.252309999999999945e+01 8.126035465580150485e+05
1.256879999999999953e+01 8.423314587906701490e+05
1.261449999999999960e+01 8.774142885440432001e+05
1.266019999999999968e+01 9.152060547388608102e+05
1.270589999999999975e+01 9.426232325685456162e+05
1.275159999999999982e+01 9.545922113030651817e+05
1.279729999999999990e+01 9.782442772514058743e+05
1.284299999999999997e+01 1.028186491925012320e+06
1.288870000000000005e+01 1.082210139068415388e+06
1.293449999999999989e+01 1.121811976044812007e+06
1.298019999999999996e+01 1.144403956289933296e+06
1.302590000000000003e+01 1.156671382874205941e+06
1.307160000000000011e+01 1.165682562460544519e+06
1.311730000000000018e+01 1.175183187588859815e+06
1.316300000000000026e+01 1.186943233631714713e+06
1.320870000000000033e+01 1.202848476490266155e+06
1.325440000000000040e+01 1.217479091541846516e+06
1.330010000000000048e+01 1.229636464748112950e+06
1.334580000000000055e+01 1.249000083032380790e+06
1.339150000000000063e+01 1.262321199885445414e+06
1.343720000000000070e+01 1.249759028636610135e+06
1.348290000000000077e+01 1.214490003312741872e+06
1.352860000000000085e+01 1.175374167144643841e+06
1.357429999999999914e+01 1.136394490306528518e+06
1.361999999999999922e+01 1.104770108718589647e+06
1.366569999999999929e+01 1.095884608028347604e+06
1.371139999999999937e+01 1.108550413631984731e+06
1.375709999999999944e+01 1.140504813105536392e+06
1.380279999999999951e+01 1.182607916735136183e+06
1.384849999999999959e+01 1.235046842837761855e+06
1.389429999999999943e+01 1.291417719922100194e+06
1.393999999999999950e+01 1.324950191364317201e+06
1.398569999999999958e+01 1.346096947161264718e+06
1.403139999999999965e+01 1.384978046945393551e+06
1.407709999999999972e+01 1.446615489748544525e+06
1.412279999999999980e+01 1.514488601506412728e+06
1.416849999999999987e+01 1.538566550232940819e+06
1.421419999999999995e+01 1.527508186687499750e+06
1.425990000000000002e+01 1.535094982499893289e+06
1.430560000000000009e+01 1.568410633998212172e+06
1.435130000000000017e+01 1.616219783566012513e+06
1.439700000000000024e+01 1.666649844426864292e+06
1.444270000000000032e+01 1.704313491207465762e+06
1.448840000000000039e+01 1.734706000974619761e+06
1.453410000000000046e+01 1.769797369561635423e+06
1.457980000000000054e+01 1.840707955679247156e+06
1.462550000000000061e+01 1.955273451078180922e+06
1.467120000000000068e+01 2.060970667495109607e+06
1.471690000000000076e+01 2.112208823889901396e+06
1.476260000000000083e+01 2.099385995133716613e+06
1.480829999999999913e+01 2.050718815640330780e+06
1.485410000000000075e+01 1.993322405586901354e+06
1.489980000000000082e+01 1.937701752315036487e+06
1.494549999999999912e+01 1.911626946967672557e+06
1.499119999999999919e+01 1.910751204108612612e+06
1.503689999999999927e+01 1.913989770072997548e+06
1.508259999999999934e+01 1.909331557478798553e+06
1.512829999999999941e+01 1.890509823244013591e+06
1.517399999999999949e+01 1.845694259696143214e+06
1.521969999999999956e+01 1.776744029233953217e+06
1.526539999999999964e+01 1.698776952234481461e+06
1.531109999999999971e+01 1.622587495877589798e+06
1.535679999999999978e+01 1.557030391124818940e+06
1.540249999999999986e+01 1.506297076783688506e+06
1.544819999999999993e+01 1.476782318561321124e+06
1.549390000000000001e+01 1.461517457609947305e+06
1.553960000000000008e+01 1.444141494259444531e+06
1.558530000000000015e+01 1.413126325549845817e+06
1.563100000000000023e+01 1.366542576972406358e+06
1.567670000000000030e+01 1.314730206424510805e+06
1.572240000000000038e+01 1.278507849784998456e+06
1.576810000000000045e+01 1.278015466389793670e+06
1.581390000000000029e+01 1.310165760427843081e+06
1.585960000000000036e+01 1.348047669175856747e+06
1.590530000000000044e+01 1.372249364166594809e+06
1.595100000000000051e+01 1.399062160192904295e+06
1.599670000000000059e+01 1.436355942262164084e+06
1.604240000000000066e+01 1.455180119634419680e+06
1.608810000000000073e+01 1.435522273615189595e+06
1.613380000000000081e+01 1.386483473361005541e+06
1.617950000000000088e+01 1.331338257837920217e+06
1.622520000000000095e+01 1.294012051695736591e+06
1.627090000000000103e+01 1.280574049859718187e+06
1.631660000000000110e+01 1.275727878186980030e+06
1.636230000000000118e+01 1.265595958658485906e+06
1.640800000000000125e+01 1.256684016823132057e+06
1.645370000000000132e+01 1.253778841970123583e+06
1.649940000000000140e+01 1.246443670378561597e+06
1.654510000000000147e+01 1.229281038071388379e+06
1.659080000000000155e+01 1.216928468981458573e+06
1.663650000000000162e+01 1.222138238277567783e+06
1.668220000000000169e+01 1.234328736141053960e+06
1.672790000000000177e+01 1.238667044398158556e+06
1.677370000000000161e+01 1.241363107093396829e+06
1.681940000000000168e+01 1.252709618211892433e+06
1.686510000000000176e+01 1.270444242172304541e+06
1.691079999999999828e+01 1.289431137649650685e+06
1.695649999999999835e+01 1.299193138369443361e+06
1.700219999999999843e+01 1.296401176438841270e+06
1.704789999999999850e+01 1.286664159200105118e+06
1.709359999999999857e+01 1.273158913916358259e+06
1.713929999999999865e+01 1.257019974142518360e+06
1.718499999999999872e+01 1.244134936243252363e+06
1.723069999999999879e+01 1.237687886581582716e+06
1.727639999999999887e+01 1.238104621262426022e+06
1.732209999999999894e+01 1.246123240331394132e+06
1.736779999999999902e+01 1.250537211727490881e+06
1.741349999999999909e+01 1.242768924262946704e+06
1.745919999999999916e+01 1.233838162079899339e+06
1.750489999999999924e+01 1.232854145350443432e+06
1.755059999999999931e+01 1.235050581474152626e+06
1.759629999999999939e+01 1.232768338823168539e+06
1.764199999999999946e+01 1.224050055617789272e+06
1.768769999999999953e+01 1.210681986941677984e+06
1.773349999999999937e+01 1.188850934009634424e+06
1.777919999999999945e+01 1.160997924339277437e+06
1.782489999999999952e+01 1.138885637023468502e+06
1.787059999999999960e+01 1.133016793750321027e+06
1.791629999999999967e+01 1.148903799708617851e+06
1.796199999999999974e+01 1.175883079697025474e+06
1.800769999999999982e+01 1.201218977007750422e+06
1.805339999999999989e+01 1.226899100813141325e+06
1.809909999999999997e+01 1.261608537612433778e+06
1.814480000000000004e+01 1.301435333778126398e+06
1.819050000000000011e+01 1.336461998846963979e+06
