# energy(eV) alpha
0.000000000000000000e+00 0.000000000000000000e+00
3.699999999999999817e-02 9.368588654864110632e-01
7.399999999999999634e-02 3.686734303229021847e+00
1.110000000000000014e-01 8.430218370431274977e+00
1.479999999999999927e-01 1.510556404167264333e+01
1.849000000000000088e-01 2.354726481893619194e+01
2.218999999999999861e-01 3.386658134562222244e+01
2.589000000000000190e-01 4.626173187469794357e+01
2.958999999999999964e-01 6.057835784607480889e+01
3.328999999999999737e-01 7.681281329823279691e+01
3.699000000000000066e-01 9.496047058868111890e+01
4.068999999999999839e-01 1.153478195118025553e+02
4.439000000000000168e-01 1.376972878202697359e+02
4.808000000000000052e-01 1.623599932100206615e+02
5.178000000000000380e-01 1.890635829750625589e+02
5.547999999999999599e-01 2.182200007675945699e+02
5.917999999999999927e-01 2.494270649893907716e+02
6.288000000000000256e-01 2.831885459295484111e+02
6.657999999999999474e-01 3.195827927045306751e+02
7.027999999999999803e-01 3.581158983205636446e+02
7.398000000000000131e-01 3.999763746243018545e+02
7.766999999999999460e-01 4.427590891265635946e+02
8.136999999999999789e-01 4.896677090689228180e+02
8.507000000000000117e-01 5.408960358074848500e+02
8.877000000000000446e-01 5.924034424339100724e+02
9.246999999999999664e-01 6.483701763684663320e+02
9.616999999999999993e-01 7.074965765135995071e+02
9.987000000000000322e-01 7.706464813485800960e+02
1.035700000000000065e+00 8.371432137734881280e+02
1.072599999999999998e+00 9.069592324643484744e+02
1.109599999999999920e+00 9.812004431989846580e+02
1.146600000000000064e+00 1.059943729933920395e+03
1.183599999999999985e+00 1.142367372965462209e+03
1.220599999999999907e+00 1.230479526371930888e+03
1.257600000000000051e+00 1.322472582559244302e+03
1.294599999999999973e+00 1.421496052646572480e+03
1.331599999999999895e+00 1.524660211990414837e+03
1.368500000000000050e+00 1.634041017726024620e+03
1.405499999999999972e+00 1.750070236640031226e+03
1.442499999999999893e+00 1.872820075213684731e+03
1.479500000000000037e+00 2.003624422617733899e+03
1.516499999999999959e+00 2.140360165463763224e+03
1.553500000000000103e+00 2.285539869161286333e+03
1.590500000000000025e+00 2.441867737874434169e+03
1.627499999999999947e+00 2.608447718578001513e+03
1.664400000000000102e+00 2.782840309816234367e+03
1.701400000000000023e+00 2.970697755083097036e+03
1.738399999999999945e+00 3.172309206743832874e+03
1.775400000000000089e+00 3.386649576787054684e+03
1.812400000000000011e+00 3.615391137157909725e+03
1.849399999999999933e+00 3.861718499415113911e+03
1.886400000000000077e+00 4.127468838873109235e+03
1.923399999999999999e+00 4.413132551494240943e+03
1.960299999999999931e+00 4.721807829178455904e+03
1.997300000000000075e+00 5.057543792546502118e+03
2.034299999999999997e+00 5.420643761022832223e+03
2.071299999999999919e+00 5.819341254735745679e+03
2.108299999999999841e+00 6.254375203226062695e+03
2.145300000000000207e+00 6.732687597002472103e+03
2.182300000000000129e+00 7.264674247036717134e+03
2.219300000000000050e+00 7.856002898737096075e+03
2.256200000000000205e+00 8.520279102675329341e+03
2.293200000000000127e+00 9.272560978057703323e+03
2.330200000000000049e+00 1.013855204574576965e+04
2.367199999999999971e+00 1.114328739849456542e+04
2.404199999999999893e+00 1.232752351385590919e+04
2.441199999999999815e+00 1.372208668332552588e+04
2.478200000000000180e+00 1.538708080675110250e+04
2.515200000000000102e+00 1.740357721586141270e+04
2.552099999999999813e+00 1.990197902249976323e+04
2.589100000000000179e+00 2.302147690079540553e+04
2.626100000000000101e+00 2.682568181405305222e+04
2.663100000000000023e+00 3.138633517130862310e+04
2.700099999999999945e+00 3.693884983529937745e+04
2.737099999999999866e+00 4.370265961122995941e+04
2.774099999999999788e+00 5.184839337294451252e+04
2.811100000000000154e+00 6.148736786369765468e+04
2.848100000000000076e+00 7.281471506017315551e+04
2.884999999999999787e+00 8.614143572525246418e+04
2.922000000000000153e+00 1.015046640329175862e+05
2.959000000000000075e+00 1.185521657645920059e+05
2.995999999999999996e+00 1.366401302801476850e+05
3.032999999999999918e+00 1.545889369602905354e+05
3.069999999999999840e+00 1.709972338383756869e+05
3.107000000000000206e+00 1.856987132589716057e+05
3.144000000000000128e+00 1.996698846388352395e+05
3.180899999999999839e+00 2.135318539300614793e+05
3.217900000000000205e+00 2.275803103118540603e+05
3.254900000000000126e+00 2.422980113420900016e+05
3.291900000000000048e+00 2.578366785264574282e+05
3.328899999999999970e+00 2.736314246108952793e+05
3.365899999999999892e+00 2.884501581483960035e+05
3.402899999999999814e+00 3.012661659876042395e+05
3.439900000000000180e+00 3.119893415415975032e+05
3.476799999999999891e+00 3.213371027506208629e+05
3.513799999999999812e+00 3.291360417017592117e+05
3.550800000000000178e+00 3.350116879686589818e+05
3.587800000000000100e+00 3.392961385588728008e+05
3.624800000000000022e+00 3.422789131255464163e+05
3.661799999999999944e+00 3.440474665450167377e+05
3.698799999999999866e+00 3.453113036611033021e+05
3.735799999999999788e+00 3.469204848928997526e+05
3.772699999999999942e+00 3.493564318187757744e+05
3.809699999999999864e+00 3.529613637138807098e+05
3.846699999999999786e+00 3.580126493311343365e+05
3.883700000000000152e+00 3.645420738509289804e+05
3.920700000000000074e+00 3.721534528420686838e+05
3.957699999999999996e+00 3.806878417679397389e+05
3.994699999999999918e+00 3.905387096515577286e+05
4.031699999999999839e+00 4.016853222189383232e+05
4.068599999999999994e+00 4.136559728681005654e+05
4.105599999999999916e+00 4.256210381112677278e+05
4.142599999999999838e+00 4.368633669025807176e+05
4.179599999999999760e+00 4.466473843001598725e+05
4.216599999999999682e+00 4.538396189571412397e+05
4.253599999999999604e+00 4.582177128248300287e+05
4.290600000000000414e+00 4.607341121258198400e+05
4.327600000000000335e+00 4.624203596877516247e+05
4.364499999999999602e+00 4.639992077246658737e+05
4.401500000000000412e+00 4.658342914548044791e+05
4.438500000000000334e+00 4.679266302213033196e+05
4.475500000000000256e+00 4.701238474681864609e+05
4.512500000000000178e+00 4.724502682696439442e+05
4.549500000000000099e+00 4.747915137614108971e+05
4.586500000000000021e+00 4.768376308335632202e+05
4.623499999999999943e+00 4.782855222420339705e+05
4.660400000000000098e+00 4.787922606342752697e+05
4.697400000000000020e+00 4.781976020881365985e+05
4.734399999999999942e+00 4.770231149927838705e+05
4.771399999999999864e+00 4.760348757320925943e+05
4.808399999999999785e+00 4.760760001015213784e+05
4.845399999999999707e+00 4.778636475095922942e+05
4.882399999999999629e+00 4.810967442190526053e+05
4.919400000000000439e+00 4.852398838674189174e+05
4.956299999999999706e+00 4.897372023446623352e+05
4.993299999999999628e+00 4.933829077231755946e+05
5.030300000000000438e+00 4.958370637163800420e+05
5.067300000000000360e+00 4.982053855223649298e+05
5.104300000000000281e+00 5.001377341867072391e+05
5.141300000000000203e+00 4.995271435166331357e+05
5.178300000000000125e+00 4.963990610997822951e+05
5.215300000000000047e+00 4.934646716807935736e+05
5.252200000000000202e+00 4.936037797812349745e+05
5.289200000000000124e+00 4.979403870494761504e+05
5.326200000000000045e+00 5.058569403417376452e+05
5.363199999999999967e+00 5.162151054638901842e+05
5.400199999999999889e+00 5.274416629798851209e+05
5.437199999999999811e+00 5.388878059646330075e+05
5.474199999999999733e+00 5.519562571908418322e+05
5.511199999999999655e+00 5.688076531049974728e+05
5.548199999999999577e+00 5.913485378834645962e+05
5.585099999999999731e+00 6.210947421225201106e+05
5.622099999999999653e+00 6.563609377602839377e+05
5.659099999999999575e+00 6.878725870390238706e+05
5.696100000000000385e+00 7.027507119934143266e+05
5.733100000000000307e+00 6.979954857952053426e+05
5.770100000000000229e+00 6.816950113296596101e+05
5.807100000000000151e+00 6.622799851431800053e+05
5.844100000000000072e+00 6.438935052922040923e+05
5.881000000000000227e+00 6.271996567924064584e+05
5.918000000000000149e+00 6.112597163433547830e+05
5.955000000000000071e+00 5.966778685728310375e+05
5.991999999999999993e+00 5.853602929448934738e+05
6.028999999999999915e+00 5.780347841938597849e+05
6.065999999999999837e+00 5.737018370397977997e+05
6.102999999999999758e+00 5.707302671471505892e+05
6.139999999999999680e+00 5.682410387140032835e+05
6.176899999999999835e+00 5.662487513421062613e+05
6.213899999999999757e+00 5.651831335635861615e+05
6.250899999999999679e+00 5.650438990557985380e+05
6.287899999999999601e+00 5.654024775382493390e+05
6.324900000000000411e+00 5.663233392176695634e+05
6.361900000000000333e+00 5.684214065105977934e+05
6.398900000000000254e+00 5.724930827169119148e+05
6.435900000000000176e+00 5.787807842101718998e+05
6.472800000000000331e+00 5.871604930584281683e+05
6.509800000000000253e+00 5.974755697344511282e+05
6.546800000000000175e+00 6.092052097429862479e+05
6.583800000000000097e+00 6.214484899976623710e+05
6.620800000000000018e+00 6.331949838065009099e+05
6.657799999999999940e+00 6.444026587025246117e+05
6.694799999999999862e+00 6.557255045107073383e+05
6.731799999999999784e+00 6.670377168300700141e+05
6.768699999999999939e+00 6.777128921870158520e+05
6.805699999999999861e+00 6.877509862971736584e+05
6.842699999999999783e+00 6.970430450193741126e+05
6.879699999999999704e+00 7.047716661805984331e+05
6.916699999999999626e+00 7.106945688843682874e+05
6.953700000000000436e+00 7.158775330102540320e+05
6.990700000000000358e+00 7.219585074332011864e+05
7.027700000000000280e+00 7.299054703742768615e+05
7.064600000000000435e+00 7.395284556500604376e+05
7.101600000000000357e+00 7.496309165621256689e+05
7.138600000000000279e+00 7.586439952589004533e+05
7.175600000000000200e+00 7.653576972697619349e+05
7.212600000000000122e+00 7.700265216364352964e+05
7.249600000000000044e+00 7.743390797055503353e+05
7.286599999999999966e+00 7.793286596516851569e+05
7.323599999999999888e+00 7.849899298642962240e+05
7.360500000000000043e+00 7.907541004087331239e+05
7.397499999999999964e+00 7.955600376528968336e+05
7.434499999999999886e+00 7.989192781411119504e+05
7.471499999999999808e+00 8.013048951350657735e+05
7.508499999999999730e+00 8.031121457152019721e+05
7.545499999999999652e+00 8.048025976935127983e+05
7.582499999999999574e+00 8.067371172778957989e+05
7.619500000000000384e+00 8.090124926657247124e+05
7.656399999999999650e+00 8.112865901341222925e+05
7.693399999999999572e+00 8.130622060712748207e+05
7.730400000000000382e+00 8.139773953383432236e+05
7.767400000000000304e+00 8.141456251595547656e+05
7.804400000000000226e+00 8.142203785988392774e+05
7.841400000000000148e+00 8.145297487855716608e+05
7.878400000000000070e+00 8.145012087712713983e+05
7.915399999999999991e+00 8.135246990564785665e+05
7.952300000000000146e+00 8.117164331272433046e+05
7.989300000000000068e+00 8.098180309145856882e+05
8.026300000000000878e+00 8.085577038999139331e+05
8.063299999999999912e+00 8.084608413245785050e+05
8.100300000000000722e+00 8.097088105285435449e+05
8.137299999999999756e+00 8.121772301867107162e+05
8.174300000000000566e+00 8.150772895029124338e+05
8.211299999999999599e+00 8.174988962279033149e+05
8.248300000000000409e+00 8.192772547722791787e+05
8.285199999999999676e+00 8.206247110860964749e+05
8.322200000000000486e+00 8.218831003688380588e+05
8.359199999999999520e+00 8.233288946430030046e+05
8.396200000000000330e+00 8.251959167374946410e+05
8.433199999999999363e+00 8.275493375241780886e+05
8.470200000000000173e+00 8.304949692139819963e+05
8.507199999999999207e+00 8.340184522022861056e+05
8.544200000000000017e+00 8.381700802275355672e+05
8.581099999999999284e+00 8.428310480738360202e+05
8.618100000000000094e+00 8.486449155208806042e+05
8.655099999999999127e+00 8.573990477144608740e+05
8.692099999999999937e+00 8.720364312774876598e+05
8.729100000000000747e+00 8.961861294101036619e+05
8.766099999999999781e+00 9.316105495782843791e+05
8.803100000000000591e+00 9.711600040752844652e+05
8.840099999999999625e+00 9.993832462753547588e+05
8.877000000000000668e+00 1.007931885489641340e+06
8.913999999999999702e+00 1.003000668506540358e+06
8.951000000000000512e+00 9.945739003971890779e+05
8.987999999999999545e+00 9.877663109508771449e+05
9.025000000000000355e+00 9.837670952760212822e+05
9.061999999999999389e+00 9.823786374416188337e+05
9.099000000000000199e+00 9.823863492239060579e+05
9.135999999999999233e+00 9.820455660198065452e+05
9.172900000000000276e+00 9.810986253822556464e+05
9.209899999999999309e+00 9.805097524162052432e+05
9.246900000000000119e+00 9.803384445447457256e+05
9.283899999999999153e+00 9.805586280605124775e+05
9.320899999999999963e+00 9.819185428228761302e+05
9.357900000000000773e+00 9.846661398778399453e+05
9.394899999999999807e+00 9.876429801142266952e+05
9.431900000000000617e+00 9.899738984428109834e+05
9.468799999999999883e+00 9.915791052028904669e+05
9.505800000000000693e+00 9.923503668630551547e+05
9.542799999999999727e+00 9.924205875995154493e+05
9.579800000000000537e+00 9.924897059900291497e+05
9.616799999999999571e+00 9.929892304099175381e+05
9.653800000000000381e+00 9.934754074568384094e+05
9.690799999999999415e+00 9.935227839050802868e+05
9.727800000000000225e+00 9.930634399013164220e+05
9.764699999999999491e+00 9.918068935813462595e+05
9.801700000000000301e+00 9.896423868259764276e+05
9.838699999999999335e+00 9.869965793167217635e+05
9.875700000000000145e+00 9.844997536528710043e+05
9.912699999999999179e+00 9.821063654400277883e+05
9.949699999999999989e+00 9.793516755576645955e+05
9.986700000000000799e+00 9.756991447619328974e+05
1.002369999999999983e+01 9.705992165055301739e+05
1.006060000000000088e+01 9.642199544356728438e+05
1.009759999999999991e+01 9.575936992431282997e+05
1.013460000000000072e+01 9.515606612388553331e+05
1.017159999999999975e+01 9.459149120532314992e+05
1.020860000000000056e+01 9.401094735359062906e+05
1.024559999999999960e+01 9.335804420679385075e+05
1.028260000000000041e+01 9.261176390571321826e+05
1.031959999999999944e+01 9.180077044375417754e+05
1.035650000000000048e+01 9.099505480374497129e+05
1.039349999999999952e+01 9.031172794293977786e+05
1.043050000000000033e+01 8.976530539489713265e+05
1.046749999999999936e+01 8.926248884939870331e+05
1.050450000000000017e+01 8.874239090951656690e+05
1.054149999999999920e+01 8.821358240221203305e+05
1.057850000000000001e+01 8.772574979797978885e+05
1.061550000000000082e+01 8.731521561151447240e+05
1.065240000000000009e+01 8.693447732057413086e+05
1.068939999999999912e+01 8.650270590676959837e+05
1.072639999999999993e+01 8.596749895851315232e+05
1.076340000000000074e+01 8.527823297539220657e+05
1.080039999999999978e+01 8.437796199141163379e+05
1.083740000000000059e+01 8.326895715413861908e+05
1.087439999999999962e+01 8.201559206399152754e+05
1.091140000000000043e+01 8.071556836969362339e+05
1.094839999999999947e+01 7.940852815537175629e+05
1.098530000000000051e+01 7.812709045589695452e+05
1.102229999999999954e+01 7.694718182159506250e+05
1.105930000000000035e+01 7.594018555601366097e+05
1.109629999999999939e+01 7.513325108890709234e+05
1.113330000000000020e+01 7.453515550106208539e+05
1.117029999999999923e+01 7.414034882393090520e+05
1.120730000000000004e+01 7.393990452711180551e+05
1.124430000000000085e+01 7.391265393977040658e+05
1.128120000000000012e+01 7.400500426275464706e+05
1.131819999999999915e+01 7.417930794991533039e+05
1.135519999999999996e+01 7.440002272231807001e+05
1.139220000000000077e+01 7.463823729179045185e+05
1.142919999999999980e+01 7.494384664978642249e+05
1.146620000000000061e+01 7.534077967478013597e+05
1.150319999999999965e+01 7.573560197549927980e+05
1.154020000000000046e+01 7.597860559575032676e+05
1.157709999999999972e+01 7.592778381459867815e+05
1.161410000000000053e+01 7.549897880127538228e+05
1.165109999999999957e+01 7.480611925828048261e+05
1.168810000000000038e+01 7.406887834678118816e+05
1.172509999999999941e+01 7.349889924340297002e+05
1.176210000000000022e+01 7.321844020740323467e+05
1.179909999999999926e+01 7.317602357409917749e+05
1.183610000000000007e+01 7.326377283823979087e+05
1.187299999999999933e+01 7.344954068321322557e+05
1.191000000000000014e+01 7.370565199604316149e+05
1.194699999999999918e+01 7.395082994166054996e+05
1.198399999999999999e+01 7.411026912801145809e+05
1.202100000000000080e+01 7.416669155791728990e+05
1.205799999999999983e+01 7.413449279565793695e+05
1.209500000000000064e+01 7.411634425504613901e+05
1.213199999999999967e+01 7.425001880712505663e+05
1.216890000000000072e+01 7.454718658322521951e+05
1.220589999999999975e+01 7.494176015154506313e+05
1.224290000000000056e+01 7.537286049971244065e+05
1.227989999999999959e+01 7.580018805314756464e+05
1.231690000000000040e+01 7.619421479013751959e+05
1.235389999999999944e+01 7.648426616686866619e+05
1.239090000000000025e+01 7.666270324121747399e+05
1.242789999999999928e+01 7.678808610331958625e+05
1.246480000000000032e+01 7.687152133192826295e+05
1.250179999999999936e+01 7.689671574429549510e+05
1.253880000000000017e+01 7.692832995729848044e+05
1.257579999999999920e+01 7.715364283509146189e+05
1.261280000000000001e+01 7.775296980873035500e+05
1.264980000000000082e+01 7.878058053264106857e+05
1.268679999999999986e+01 8.014254167447574437e+05
1.272380000000000067e+01 8.169627857824668754e+05
1.276069999999999993e+01 8.326203329266193323e+05
1.279770000000000074e+01 8.462185842412603088e+05
1.283469999999999978e+01 8.563464522230218863e+05
1.287170000000000059e+01 8.626914011733494699e+05
1.290869999999999962e+01 8.658912727284231223e+05
1.294570000000000043e+01 8.667816264139970299e+05
1.298269999999999946e+01 8.656013708190178731e+05
1.301970000000000027e+01 8.618140438098079758e+05
1.305659999999999954e+01 8.552382852104866179e+05
1.309360000000000035e+01 8.468155964407934807e+05
1.313059999999999938e+01 8.374907753165159374e+05
1.316760000000000019e+01 8.278913779224364553e+05
1.320459999999999923e+01 8.194179762228647014e+05
1.324160000000000004e+01 8.130668715837610653e+05
1.327860000000000085e+01 8.081120171191003174e+05
1.331559999999999988e+01 8.028806567721893080e+05
1.335260000000000069e+01 7.968058859022982651e+05
1.338949999999999996e+01 7.907283374636713415e+05
1.342650000000000077e+01 7.855629821656845743e+05
1.346349999999999980e+01 7.818764323050694074e+05
1.350050000000000061e+01 7.794471045465979259e+05
1.353749999999999964e+01 7.777233529475096148e+05
1.357450000000000045e+01 7.762578981535385828e+05
1.361149999999999949e+01 7.751521447602899279e+05
1.364850000000000030e+01 7.740653822067778092e+05
1.368539999999999957e+01 7.725224530313485302e+05
1.372240000000000038e+01 7.711318336069084471e+05
1.375939999999999941e+01 7.701976453281748109e+05
1.379640000000000022e+01 7.689456850458004046e+05
1.383339999999999925e+01 7.667801607246466447e+05
1.387040000000000006e+01 7.639711000307385111e+05
1.390740000000000087e+01 7.606574708885671571e+05
1.394439999999999991e+01 7.570975397060380783e+05
1.398129999999999917e+01 7.538854837679711636e+05
1.401829999999999998e+01 7.511743205455302959e+05
1.405530000000000079e+01 7.487383786252228310e+05
1.409229999999999983e+01 7.464490892275730148e+05
1.412930000000000064e+01 7.445250866422660183e+05
1.416629999999999967e+01 7.427872848273925483e+05
1.420330000000000048e+01 7.404712469501128653e+05
1.424029999999999951e+01 7.371865266482490115e+05
1.427720000000000056e+01 7.323990559117714874e+05
1.431419999999999959e+01 7.259082804036500165e+05
1.435120000000000040e+01 7.180419751709122211e+05
1.438819999999999943e+01 7.098744534515669802e+05
1.442520000000000024e+01 7.023797061361294473e+05
1.446219999999999928e+01 6.963169906454373850e+05
1.449920000000000009e+01 6.915124792457406875e+05
1.453619999999999912e+01 6.876954693059306592e+05
1.457310000000000016e+01 6.848954463621529285e+05
1.461009999999999920e+01 6.831551524421381764e+05
1.464710000000000001e+01 6.820787435226731468e+05
1.468410000000000082e+01 6.810957679222369334e+05
1.472109999999999985e+01 6.797358825869102729e+05
