# energy(eV) alpha
0.000000000000000000e+00 0.000000000000000000e+00
3.880000000000000115e-02 2.613360153812991804e+00
7.760000000000000231e-02 1.050909369267094995e+01
1.164000000000000035e-01 2.368186066775111343e+01
1.552000000000000046e-01 4.223756244514731861e+01
1.940000000000000058e-01 6.653583424487860043e+01
2.328000000000000069e-01 9.647333387504241387e+01
2.716999999999999971e-01 1.321638251402901574e+02
3.104999999999999982e-01 1.740350965449586340e+02
3.492999999999999994e-01 2.223525933550991738e+02
3.881000000000000005e-01 2.779075933754571679e+02
4.269000000000000017e-01 3.404520624277492402e+02
4.657000000000000028e-01 4.112178509610412789e+02
5.044999999999999485e-01 4.899066423490718876e+02
5.433000000000000052e-01 5.783799739055343707e+02
5.820999999999999508e-01 6.763724329030370654e+02
6.209000000000000075e-01 7.856462387438277801e+02
6.596999999999999531e-01 9.068405477962340910e+02
6.985000000000000098e-01 1.042074573482974301e+03
7.372999999999999554e-01 1.192712516181894216e+03
7.762000000000000011e-01 1.360372220922883344e+03
8.149999999999999467e-01 1.546773915796265101e+03
8.538000000000000034e-01 1.757389934497619151e+03
8.925999999999999490e-01 1.993727398044046822e+03
9.314000000000000057e-01 2.260480927864374280e+03
9.701999999999999513e-01 2.564856231707335610e+03
1.008999999999999897e+00 2.911810448883240042e+03
1.047800000000000065e+00 3.310961438326426560e+03
1.086600000000000010e+00 3.776398893415767361e+03
1.125399999999999956e+00 4.324034678965467720e+03
1.164199999999999902e+00 4.975628844229826427e+03
1.203000000000000069e+00 5.763980249931173603e+03
1.241900000000000004e+00 6.738028346923178105e+03
1.280699999999999950e+00 7.967590683496190650e+03
1.319499999999999895e+00 9.563268782145438308e+03
1.358300000000000063e+00 1.168759546253995723e+04
1.397100000000000009e+00 1.451713517587934075e+04
1.435899999999999954e+00 1.811380407324962653e+04
1.474699999999999900e+00 2.248079375751527186e+04
1.513500000000000068e+00 2.791070443688616069e+04
1.552300000000000013e+00 3.525872090322244185e+04
1.591099999999999959e+00 4.637410479209398909e+04
1.629899999999999904e+00 6.291234602452092076e+04
1.668700000000000072e+00 8.461306620160229795e+04
1.707500000000000018e+00 1.068070251632282016e+05
1.746399999999999952e+00 1.204801218819288624e+05
1.785199999999999898e+00 1.225248953611464094e+05
1.824000000000000066e+00 1.205435811282667855e+05
1.862800000000000011e+00 1.188430490281418315e+05
1.901599999999999957e+00 1.145274668703388452e+05
1.940399999999999903e+00 1.066368354280781932e+05
1.979200000000000070e+00 9.864696032641291094e+04
2.017999999999999794e+00 9.421854697120998753e+04
2.056799999999999962e+00 9.454461998505452357e+04
2.095600000000000129e+00 9.775194064573492506e+04
2.134399999999999853e+00 1.016325495586359611e+05
2.173200000000000021e+00 1.049033316053925082e+05
2.212000000000000188e+00 1.059868316700530704e+05
2.250900000000000123e+00 1.030876296099846222e+05
2.289699999999999847e+00 9.690704935026644671e+04
2.328500000000000014e+00 9.101581405277385784e+04
2.367300000000000182e+00 8.890087272938020760e+04
2.406099999999999905e+00 9.186380390916725446e+04
2.444900000000000073e+00 9.959799511089174484e+04
2.483699999999999797e+00 1.104900320656996482e+05
2.522499999999999964e+00 1.210679428762664174e+05
2.561300000000000132e+00 1.268281577806974528e+05
2.600099999999999856e+00 1.272063179158080020e+05
2.638900000000000023e+00 1.252231256785245496e+05
2.677700000000000191e+00 1.244800796518474963e+05
2.716499999999999915e+00 1.268031077443099348e+05
2.755399999999999849e+00 1.316982711330812308e+05
2.794200000000000017e+00 1.385208687804407091e+05
2.833000000000000185e+00 1.472849213087371900e+05
2.871799999999999908e+00 1.586878636130155355e+05
2.910600000000000076e+00 1.720143219311928260e+05
2.949399999999999800e+00 1.833232092799230886e+05
2.988199999999999967e+00 1.908583072484724689e+05
3.027000000000000135e+00 1.971928521240376576e+05
3.065799999999999859e+00 2.029760878349731793e+05
3.104600000000000026e+00 2.094275098610637651e+05
3.143400000000000194e+00 2.180466864871773869e+05
3.182199999999999918e+00 2.274144597224669706e+05
3.221099999999999852e+00 2.365143888295820507e+05
3.259900000000000020e+00 2.448717264033137471e+05
3.298700000000000188e+00 2.522863609503144689e+05
3.337499999999999911e+00 2.599627788848291966e+05
3.376300000000000079e+00 2.698485067720782245e+05
3.415099999999999802e+00 2.823351177851104876e+05
3.453899999999999970e+00 2.953430051505501033e+05
3.492700000000000138e+00 3.067537006513957749e+05
3.531499999999999861e+00 3.158214165366964298e+05
3.570300000000000029e+00 3.232942469772909535e+05
3.609100000000000197e+00 3.311336519229899859e+05
3.647899999999999920e+00 3.408308402186373714e+05
3.686700000000000088e+00 3.518121174310270580e+05
3.725600000000000023e+00 3.633872337383838603e+05
3.764400000000000190e+00 3.744624088358299341e+05
3.803199999999999914e+00 3.830788172927774140e+05
3.842000000000000082e+00 3.879950418957606889e+05
3.880799999999999805e+00 3.902617876803298714e+05
3.919599999999999973e+00 3.917064759336434072e+05
3.958400000000000141e+00 3.922646055152536137e+05
3.997199999999999864e+00 3.904371228944158065e+05
4.035999999999999588e+00 3.870394702756823390e+05
4.074799999999999756e+00 3.843622982223928557e+05
4.113599999999999923e+00 3.824314905680894735e+05
4.152400000000000091e+00 3.825695319653273909e+05
4.191200000000000259e+00 3.869613174239924410e+05
4.230100000000000193e+00 3.947697501905513927e+05
4.268900000000000361e+00 4.031162859060273040e+05
4.307699999999999640e+00 4.104269884945529047e+05
4.346499999999999808e+00 4.167841604285194771e+05
4.385299999999999976e+00 4.214027400787567021e+05
4.424100000000000144e+00 4.232437956830709591e+05
4.462900000000000311e+00 4.232723441935300943e+05
4.501699999999999591e+00 4.237694105835462105e+05
4.540499999999999758e+00 4.274292427803472383e+05
4.579299999999999926e+00 4.362090202371999621e+05
4.618100000000000094e+00 4.499475118259814335e+05
4.656900000000000261e+00 4.680388882610461442e+05
4.695800000000000196e+00 4.880403079303728882e+05
4.734600000000000364e+00 5.055625251510380185e+05
4.773399999999999643e+00 5.201802301489156089e+05
4.812199999999999811e+00 5.337526796394907869e+05
4.850999999999999979e+00 5.448093071208862821e+05
4.889800000000000146e+00 5.503196241427143104e+05
4.928600000000000314e+00 5.515440749743247870e+05
4.967399999999999594e+00 5.532331833190522157e+05
5.006199999999999761e+00 5.582174841338816332e+05
5.044999999999999929e+00 5.657166467565946514e+05
5.083800000000000097e+00 5.729385433893889422e+05
5.122600000000000264e+00 5.783310489021275425e+05
5.161400000000000432e+00 5.837708868670621887e+05
5.200300000000000367e+00 5.939075247408280848e+05
5.239099999999999646e+00 6.082045052538312739e+05
5.277899999999999814e+00 6.204103868390965508e+05
5.316699999999999982e+00 6.251818478262319695e+05
5.355500000000000149e+00 6.232242658142446307e+05
5.394300000000000317e+00 6.189255545281047234e+05
5.433099999999999596e+00 6.154789000573899830e+05
5.471899999999999764e+00 6.115589448069133796e+05
5.510699999999999932e+00 6.052850835579698905e+05
5.549500000000000099e+00 6.002678827752356883e+05
5.588300000000000267e+00 6.013442883139889454e+05
5.627100000000000435e+00 6.084179197304758709e+05
5.665899999999999714e+00 6.186769965743025532e+05
5.704799999999999649e+00 6.302958104657315416e+05
5.743599999999999817e+00 6.431915853592945496e+05
5.782399999999999984e+00 6.579044907239446184e+05
5.821200000000000152e+00 6.752662732689430704e+05
5.860000000000000320e+00 6.984759842526353896e+05
5.898799999999999599e+00 7.277431515779148322e+05
5.937599999999999767e+00 7.570775709827680839e+05
5.976399999999999935e+00 7.809623407503560884e+05
6.015200000000000102e+00 7.985128523961588508e+05
6.054000000000000270e+00 8.109989874601367628e+05
6.092800000000000438e+00 8.187621718903182773e+05
6.131599999999999717e+00 8.219240924123454606e+05
6.170399999999999885e+00 8.238135493254311150e+05
6.209299999999999820e+00 8.296169744939544471e+05
6.248099999999999987e+00 8.383881920782169327e+05
6.286900000000000155e+00 8.442039679625856224e+05
6.325700000000000323e+00 8.438145948372168932e+05
6.364499999999999602e+00 8.365506978157638805e+05
6.403299999999999770e+00 8.262750405282018473e+05
6.442099999999999937e+00 8.188236698940435890e+05
6.480900000000000105e+00 8.138631722625268158e+05
6.519700000000000273e+00 8.070923775294212392e+05
6.558500000000000441e+00 7.957505218505315715e+05
6.597299999999999720e+00 7.800753528245951748e+05
6.636099999999999888e+00 7.637195161274371203e+05
6.674999999999999822e+00 7.511033597469998058e+05
6.713799999999999990e+00 7.424308984684479656e+05
6.752600000000000158e+00 7.364097688837589230e+05
6.791400000000000325e+00 7.338306648648374248e+05
6.830199999999999605e+00 7.355381850321192760e+05
6.868999999999999773e+00 7.393570524807223119e+05
6.907799999999999940e+00 7.422314019218793837e+05
6.946600000000000108e+00 7.438410252876814920e+05
6.985400000000000276e+00 7.477049287309562787e+05
7.024200000000000443e+00 7.569061951269570272e+05
7.062999999999999723e+00 7.706749420875770738e+05
7.101799999999999891e+00 7.860446532737715170e+05
7.140600000000000058e+00 7.998255822999930242e+05
7.179499999999999993e+00 8.101126425263804849e+05
7.218300000000000161e+00 8.177840345916916849e+05
7.257100000000000328e+00 8.233765798458992504e+05
7.295899999999999608e+00 8.256801869490297977e+05
7.334699999999999775e+00 8.246900198000314413e+05
7.373499999999999943e+00 8.211412149204672314e+05
7.412300000000000111e+00 8.155671103565025842e+05
7.451100000000000279e+00 8.103440039713548031e+05
7.489899999999999558e+00 8.074903948346903780e+05
7.528699999999999726e+00 8.068431398461358622e+05
7.567499999999999893e+00 8.070833744654902257e+05
7.606300000000000061e+00 8.069657041869917884e+05
7.645100000000000229e+00 8.071714298450553324e+05
7.684000000000000163e+00 8.086169362660154002e+05
7.722800000000000331e+00 8.086095280851792777e+05
7.761599999999999611e+00 8.032349125508893048e+05
7.800399999999999778e+00 7.921974121119464980e+05
7.839199999999999946e+00 7.797641267910226015e+05
7.878000000000000114e+00 7.704695629929411225e+05
7.916800000000000281e+00 7.663591093647084199e+05
7.955599999999999561e+00 7.683168507988995407e+05
7.994399999999999729e+00 7.766727564731352031e+05
8.033200000000000784e+00 7.927091224172251532e+05
8.071999999999999176e+00 8.165054775719264289e+05
8.110799999999999343e+00 8.451050721101312665e+05
8.149599999999999511e+00 8.735109162873168243e+05
8.188499999999999446e+00 8.966364802760306047e+05
8.227299999999999613e+00 9.137851718952178489e+05
8.266099999999999781e+00 9.273834177398902830e+05
8.304899999999999949e+00 9.384363150867907098e+05
8.343700000000000117e+00 9.469446582968548173e+05
8.382500000000000284e+00 9.539385060472566402e+05
8.421300000000000452e+00 9.607697056838428834e+05
8.460100000000000620e+00 9.668215100142317824e+05
8.498900000000000787e+00 9.713263350839969935e+05
8.537699999999999179e+00 9.757662417707963614e+05
8.576499999999999346e+00 9.785027072642402491e+05
8.615299999999999514e+00 9.757429547608741559e+05
8.654199999999999449e+00 9.670473831209029304e+05
8.692999999999999616e+00 9.579923585453507258e+05
8.731799999999999784e+00 9.539398294874408748e+05
8.770599999999999952e+00 9.533513803901374340e+05
8.809400000000000119e+00 9.521740332288322970e+05
8.848200000000000287e+00 9.503858422654938186e+05
8.887000000000000455e+00 9.514007556980706286e+05
8.925800000000000622e+00 9.566407428618050180e+05
8.964600000000000790e+00 9.642104389097864041e+05
9.003399999999999181e+00 9.714533200565499719e+05
9.042199999999999349e+00 9.789151367209374439e+05
9.080999999999999517e+00 9.889433004290469689e+05
9.119799999999999685e+00 9.995682927062276285e+05
9.158699999999999619e+00 1.006742316842831788e+06
9.197499999999999787e+00 1.008542249564319151e+06
9.236299999999999955e+00 1.005133099864955177e+06
9.275100000000000122e+00 9.981063589737040456e+05
9.313900000000000290e+00 9.882761428475015564e+05
9.352700000000000458e+00 9.770743582669168245e+05
9.391500000000000625e+00 9.670444177944916300e+05
9.430300000000000793e+00 9.596852199970523361e+05
9.469099999999999184e+00 9.545770410734210163e+05
9.507899999999999352e+00 9.490777143404775998e+05
9.546699999999999520e+00 9.437637636646009050e+05
9.585499999999999687e+00 9.431497064175221603e+05
9.624299999999999855e+00 9.486726463624774478e+05
9.663199999999999790e+00 9.565411635423385305e+05
9.701999999999999957e+00 9.619603528362384532e+05
9.740800000000000125e+00 9.641521240068697371e+05
9.779600000000000293e+00 9.646669642218902009e+05
9.818400000000000460e+00 9.645482905959017808e+05
9.857200000000000628e+00 9.635240547543470748e+05
9.896000000000000796e+00 9.627396327775091631e+05
9.934799999999999187e+00 9.632329459817168536e+05
9.973599999999999355e+00 9.638763784210055601e+05
1.001239999999999952e+01 9.626350832890945021e+05
1.005119999999999969e+01 9.586618276241897838e+05
1.008999999999999986e+01 9.509566271494835382e+05
1.012880000000000003e+01 9.388740887349146651e+05
1.016769999999999996e+01 9.245701221643897006e+05
1.020650000000000013e+01 9.115922894751946442e+05
1.024530000000000030e+01 9.025331172031933675e+05
1.028410000000000046e+01 8.985838141973132733e+05
1.032290000000000063e+01 8.994797690170755377e+05
1.036170000000000080e+01 9.028470110825247830e+05
1.040049999999999919e+01 9.058626225280276267e+05
1.043929999999999936e+01 9.056185923302728916e+05
1.047809999999999953e+01 9.008731939779622480e+05
1.051689999999999969e+01 8.938164732401078800e+05
1.055569999999999986e+01 8.883592435842858395e+05
1.059450000000000003e+01 8.862500808347582351e+05
1.063339999999999996e+01 8.854645667968203779e+05
1.067220000000000013e+01 8.839740579819227569e+05
1.071100000000000030e+01 8.822688701171812136e+05
1.074980000000000047e+01 8.817294216508001555e+05
1.078860000000000063e+01 8.829865689135176362e+05
1.082740000000000080e+01 8.850163365681816358e+05
1.086619999999999919e+01 8.871430834231802728e+05
1.090499999999999936e+01 8.907970219882375095e+05
1.094379999999999953e+01 8.991143814427839825e+05
1.098259999999999970e+01 9.135513056760500185e+05
1.102139999999999986e+01 9.299676578621583758e+05
1.106020000000000003e+01 9.447751909487023950e+05
1.109900000000000020e+01 9.590648803166759899e+05
1.113790000000000013e+01 9.737030653936308809e+05
1.117670000000000030e+01 9.870814456654195674e+05
1.121550000000000047e+01 9.991769333333540708e+05
1.125430000000000064e+01 1.012715715082405135e+06
1.129310000000000080e+01 1.027064184205452329e+06
1.133189999999999920e+01 1.036810515982752782e+06
1.137069999999999936e+01 1.040047894589284668e+06
1.140949999999999953e+01 1.042390999792567105e+06
1.144829999999999970e+01 1.048777892537650187e+06
1.148709999999999987e+01 1.058045563837319147e+06
1.152590000000000003e+01 1.067357832344689174e+06
1.156470000000000020e+01 1.075022599590825615e+06
1.160350000000000037e+01 1.080877726592251332e+06
1.164240000000000030e+01 1.084396487050872296e+06
1.168120000000000047e+01 1.083439318152881693e+06
1.172000000000000064e+01 1.076924760447228327e+06
1.175880000000000081e+01 1.066308218366480898e+06
1.179759999999999920e+01 1.055486049254957354e+06
1.183639999999999937e+01 1.047604386453751707e+06
1.187519999999999953e+01 1.042830973087609746e+06
1.191399999999999970e+01 1.038502180143171456e+06
1.195279999999999987e+01 1.030501378251056653e+06
1.199160000000000004e+01 1.016975456600670354e+06
1.203040000000000020e+01 9.995917814612133661e+05
1.206920000000000037e+01 9.804450068558149505e+05
1.210810000000000031e+01 9.601794728193797637e+05
1.214690000000000047e+01 9.399133423251747154e+05
1.218570000000000064e+01 9.215205683872457594e+05
1.222450000000000081e+01 9.050617106280752923e+05
1.226329999999999920e+01 8.909737080519953743e+05
1.230209999999999937e+01 8.807626302132268902e+05
1.234089999999999954e+01 8.747429238812136464e+05
1.237969999999999970e+01 8.723402088615712710e+05
1.241849999999999987e+01 8.723001960380756063e+05
1.245730000000000004e+01 8.733100467933843611e+05
1.249610000000000021e+01 8.744886902715315809e+05
1.253490000000000038e+01 8.754390513483114773e+05
1.257370000000000054e+01 8.745148701975669246e+05
1.261260000000000048e+01 8.702236589560310822e+05
1.265140000000000065e+01 8.634943039200337371e+05
1.269020000000000081e+01 8.550630403805602109e+05
1.272899999999999920e+01 8.446544938977020793e+05
1.276779999999999937e+01 8.311999478856411297e+05
1.280659999999999954e+01 8.143800177054168889e+05
1.284539999999999971e+01 7.958565855575179448e+05
1.288419999999999987e+01 7.784752863059585216e+05
1.292300000000000004e+01 7.637089520229549380e+05
1.296180000000000021e+01 7.505168813016413478e+05
1.300060000000000038e+01 7.388010477047084132e+05
1.303940000000000055e+01 7.292015183576848358e+05
1.307820000000000071e+01 7.206548235136222793e+05
1.311710000000000065e+01 7.120939629727966385e+05
1.315590000000000082e+01 7.036677969337936956e+05
1.319469999999999921e+01 6.952153456642363453e+05
1.323349999999999937e+01 6.864294144639420556e+05
1.327229999999999954e+01 6.772761582965145353e+05
1.331109999999999971e+01 6.688749222550378181e+05
1.334989999999999988e+01 6.617604393357603112e+05
1.338870000000000005e+01 6.551299011183303082e+05
1.342750000000000021e+01 6.474211115232518641e+05
1.346630000000000038e+01 6.391772000663137296e+05
1.350510000000000055e+01 6.325271221238436410e+05
1.354390000000000072e+01 6.284208283908524318e+05
1.358270000000000088e+01 6.247908679532514652e+05
1.362160000000000082e+01 6.197132985278418055e+05
1.366039999999999921e+01 6.125062496252548881e+05
1.369919999999999938e+01 6.030992083199544577e+05
1.373799999999999955e+01 5.917614156393252779e+05
1.377679999999999971e+01 5.790298210536666447e+05
1.381559999999999988e+01 5.671760050889925333e+05
1.385440000000000005e+01 5.578994228400428547e+05
1.389320000000000022e+01 5.499096306676816894e+05
1.393200000000000038e+01 5.423284430998661555e+05
1.397080000000000055e+01 5.361320789903263794e+05
1.400960000000000072e+01 5.318691866276445799e+05
1.404840000000000089e+01 5.283776205494196620e+05
1.408730000000000082e+01 5.248043121472748462e+05
1.412609999999999921e+01 5.222931269581995439e+05
1.416489999999999938e+01 5.220173703707946115e+05
1.420369999999999955e+01 5.237002439738513785e+05
1.424249999999999972e+01 5.275318957045398420e+05
1.428129999999999988e+01 5.340375091873516794e+05
1.432010000000000005e+01 5.428598772153123282e+05
1.435890000000000022e+01 5.526805215682430426e+05
1.439770000000000039e+01 5.603659188194299350e+05
1.443650000000000055e+01 5.631215681635529036e+05
1.447530000000000072e+01 5.611122701592061203e+05
1.451409999999999911e+01 5.575908348774686456e+05
1.455289999999999928e+01 5.543746728853364475e+05
1.459179999999999922e+01 5.496701470113680698e+05
1.463059999999999938e+01 5.423955284870219184e+05
1.466939999999999955e+01 5.334499891662577866e+05
1.470819999999999972e+01 5.240275037331231288e+05
1.474699999999999989e+01 5.145491174527271651e+05
1.478580000000000005e+01 5.041658704903401085e+05
1.482460000000000022e+01 4.945244455049312091e+05
1.486340000000000039e+01 4.872250763924064231e+05
1.490220000000000056e+01 4.817927594968897756e+05
1.494100000000000072e+01 4.775714652955314377e+05
1.497979999999999912e+01 4.744463020346649573e+05
1.501859999999999928e+01 4.721777141764192493e+05
1.505739999999999945e+01 4.711404286133451969e+05
1.509629999999999939e+01 4.724275062937789480e+05
1.513509999999999955e+01 4.753512317783506005e+05
1.517389999999999972e+01 4.776306713611186715e+05
1.521269999999999989e+01 4.774633340389683144e+05
1.525150000000000006e+01 4.736447664434501203e+05
1.529030000000000022e+01 4.662827385959565290e+05
1.532910000000000039e+01 4.570691865994128166e+05
1.536790000000000056e+01 4.474461516752493917e+05
1.540670000000000073e+01 4.381632734306851635e+05
1.544549999999999912e+01 4.281917952696255525e+05
