# energy(eV) alpha
0.000000000000000000e+00 0.000000000000000000e+00
4.229999999999999732e-02 2.741644456030069676e+00
8.459999999999999465e-02 1.109068782928423680e+01
1.269000000000000128e-01 2.494652558185399727e+01
1.691999999999999893e-01 4.458272925884432425e+01
2.114999999999999936e-01 7.017311018246559229e+01
2.538000000000000256e-01 1.015103201936032633e+02
2.960999999999999743e-01 1.390107368614972643e+02
3.383999999999999786e-01 1.833345993334006323e+02
3.806999999999999829e-01 2.345400427042901583e+02
4.229999999999999871e-01 2.928672659787362136e+02
4.652999999999999914e-01 3.592312430146034785e+02
5.076000000000000512e-01 4.332922449790639803e+02
5.499000000000000554e-01 5.164755465614955483e+02
5.921999999999999487e-01 6.101309501073417323e+02
6.344999999999999529e-01 7.134925085398382407e+02
6.767999999999999572e-01 8.289053186797474382e+02
7.190999999999999615e-01 9.575802288725568587e+02
7.613999999999999657e-01 1.100817964652773298e+03
8.036999999999999700e-01 1.260599744404127705e+03
8.459999999999999742e-01 1.437866281090130542e+03
8.882999999999999785e-01 1.638014865472795009e+03
9.305999999999999828e-01 1.862478118110036348e+03
9.728999999999999870e-01 2.114697772210293806e+03
1.015200000000000102e+00 2.400543607725927814e+03
1.057500000000000107e+00 2.728644367224420876e+03
1.099800000000000111e+00 3.105349932202714626e+03
1.142099999999999893e+00 3.540478355361472040e+03
1.184399999999999897e+00 4.053599956510955053e+03
1.226699999999999902e+00 4.661612767371204427e+03
1.268999999999999906e+00 5.397095187871956114e+03
1.311299999999999910e+00 6.301065992044857012e+03
1.353599999999999914e+00 7.444333819457290701e+03
1.395899999999999919e+00 8.930909087671838279e+03
1.438199999999999923e+00 1.093841782656190662e+04
1.480399999999999938e+00 1.373004319683613176e+04
1.522699999999999942e+00 1.759829866799380034e+04
1.564999999999999947e+00 2.262502917260098911e+04
1.607299999999999951e+00 2.916934689713572516e+04
1.649599999999999955e+00 3.838439456919208169e+04
1.691899999999999959e+00 4.973933607813037088e+04
1.734199999999999964e+00 6.122443313020258211e+04
1.776499999999999968e+00 7.311506311024747265e+04
1.818799999999999972e+00 8.473560330094739038e+04
1.861099999999999977e+00 9.294529446623180411e+04
1.903399999999999981e+00 9.847261911563061585e+04
1.945699999999999985e+00 1.050302736808048503e+05
1.987999999999999989e+00 1.113202704165129544e+05
2.030299999999999994e+00 1.193853554857685958e+05
2.072599999999999998e+00 1.312256415147994412e+05
2.114900000000000002e+00 1.442786670578944031e+05
2.157200000000000006e+00 1.537386722270385071e+05
2.199500000000000011e+00 1.477139066509446420e+05
2.241800000000000015e+00 1.307267838968955184e+05
2.284100000000000019e+00 1.177029843413825729e+05
2.326400000000000023e+00 1.116500518062889169e+05
2.368700000000000028e+00 1.088294863213312929e+05
2.411000000000000032e+00 1.072461946412457328e+05
2.453300000000000036e+00 1.064616000179967232e+05
2.495600000000000041e+00 1.080368742645612365e+05
2.537900000000000045e+00 1.106471664700727124e+05
2.580200000000000049e+00 1.108139294443889521e+05
2.622500000000000053e+00 1.117177157972700807e+05
2.664800000000000058e+00 1.154954715580755146e+05
2.707100000000000062e+00 1.201180251575504517e+05
2.749400000000000066e+00 1.257051608026277972e+05
2.791700000000000070e+00 1.348818547388989828e+05
2.834000000000000075e+00 1.468904543015160016e+05
2.876300000000000079e+00 1.587525077993873274e+05
2.918600000000000083e+00 1.708467162520065904e+05
2.960900000000000087e+00 1.842813920427784615e+05
3.003200000000000092e+00 1.963260373301014770e+05
3.045500000000000096e+00 2.024472936905605893e+05
3.087800000000000100e+00 2.045229189046073006e+05
3.130100000000000104e+00 2.066578996707394836e+05
3.172400000000000109e+00 2.118800135972574935e+05
3.214700000000000113e+00 2.198682744600742590e+05
3.257000000000000117e+00 2.295729191674660542e+05
3.299300000000000122e+00 2.411901036231391772e+05
3.341600000000000126e+00 2.524046009072208544e+05
3.383900000000000130e+00 2.628224931946590659e+05
3.426200000000000134e+00 2.747206198550781701e+05
3.468500000000000139e+00 2.863910129024208291e+05
3.510800000000000143e+00 2.967578588069202960e+05
3.553100000000000147e+00 3.088746249272889108e+05
3.595400000000000151e+00 3.222522101367395953e+05
3.637700000000000156e+00 3.330539861980932765e+05
3.680000000000000160e+00 3.415998784291133052e+05
3.722300000000000164e+00 3.515715641532081063e+05
3.764600000000000168e+00 3.634462772305482067e+05
3.806900000000000173e+00 3.769552799235707498e+05
3.849200000000000177e+00 3.908095173346859519e+05
3.891500000000000181e+00 4.026182387582968222e+05
3.933800000000000185e+00 4.101750014887012076e+05
3.976100000000000190e+00 4.138206185981580638e+05
4.018399999999999750e+00 4.148759456580989063e+05
4.060699999999999754e+00 4.118572143303650082e+05
4.102999999999999758e+00 4.045330188248396153e+05
4.145299999999999763e+00 3.971530171909140772e+05
4.187599999999999767e+00 3.935725431190591189e+05
4.229899999999999771e+00 3.965856539854848525e+05
4.272199999999999775e+00 4.064699113494093763e+05
4.314499999999999780e+00 4.187045282455902197e+05
4.356799999999999784e+00 4.289180044693467789e+05
4.399000000000000021e+00 4.365454561263680225e+05
4.441300000000000026e+00 4.412770163079425693e+05
4.483600000000000030e+00 4.443197709645660361e+05
4.525900000000000034e+00 4.484384089288555551e+05
4.568200000000000038e+00 4.551227226552796201e+05
4.610500000000000043e+00 4.677384170906782383e+05
4.652800000000000047e+00 4.896750265781646594e+05
4.695100000000000051e+00 5.196254103867117665e+05
4.737400000000000055e+00 5.491608193806436611e+05
4.779700000000000060e+00 5.719189089759936323e+05
4.822000000000000064e+00 5.877681285348979291e+05
4.864300000000000068e+00 5.989079005603761179e+05
4.906600000000000072e+00 6.065444653213187121e+05
4.948900000000000077e+00 6.110918907882907661e+05
4.991200000000000081e+00 6.152546011459700530e+05
5.033500000000000085e+00 6.204803121244981885e+05
5.075800000000000090e+00 6.243418209929405712e+05
5.118100000000000094e+00 6.242036006529312581e+05
5.160400000000000098e+00 6.233479388734203530e+05
5.202700000000000102e+00 6.235935296443352709e+05
5.245000000000000107e+00 6.193046113827956142e+05
5.287300000000000111e+00 6.075920010822854238e+05
5.329600000000000115e+00 5.920717852869763738e+05
5.371900000000000119e+00 5.762688965038090246e+05
5.414200000000000124e+00 5.645538375050475588e+05
5.456500000000000128e+00 5.583430913269029697e+05
5.498800000000000132e+00 5.543465286490952130e+05
5.541100000000000136e+00 5.519672347020056332e+05
5.583400000000000141e+00 5.529329154155178694e+05
5.625700000000000145e+00 5.577257287583533907e+05
5.668000000000000149e+00 5.674212978659273358e+05
5.710300000000000153e+00 5.806123127200263552e+05
5.752600000000000158e+00 5.965958015422599856e+05
5.794900000000000162e+00 6.167306406427276088e+05
5.837200000000000166e+00 6.422259020461643813e+05
5.879500000000000171e+00 6.748401326083132299e+05
5.921800000000000175e+00 7.123343138799738372e+05
5.964100000000000179e+00 7.490768831258828286e+05
6.006400000000000183e+00 7.806343155726135010e+05
6.048700000000000188e+00 8.030337913405873114e+05
6.091000000000000192e+00 8.132835318382341648e+05
6.133300000000000196e+00 8.157226675054733641e+05
6.175600000000000200e+00 8.177877035641561961e+05
6.217900000000000205e+00 8.206227422659840668e+05
6.260200000000000209e+00 8.241139277214326430e+05
6.302500000000000213e+00 8.290656066542152548e+05
6.344800000000000217e+00 8.311381764734359458e+05
6.387100000000000222e+00 8.283797138588856906e+05
6.429400000000000226e+00 8.221751830676674144e+05
6.471700000000000230e+00 8.143228316732607782e+05
6.514000000000000234e+00 8.066940115460738307e+05
6.556300000000000239e+00 7.987700028460284229e+05
6.598600000000000243e+00 7.871637471112492494e+05
6.640900000000000247e+00 7.734805700958562084e+05
6.683200000000000252e+00 7.632832292594681494e+05
6.725500000000000256e+00 7.583412418748120544e+05
6.767800000000000260e+00 7.567238087373409653e+05
6.810100000000000264e+00 7.578895357088156743e+05
6.852400000000000269e+00 7.599400613613901660e+05
6.894700000000000273e+00 7.617127347401442239e+05
6.937000000000000277e+00 7.636710373202144401e+05
6.979300000000000281e+00 7.660666967754565412e+05
7.021600000000000286e+00 7.713907452488882700e+05
7.063900000000000290e+00 7.812152756728052627e+05
7.106200000000000294e+00 7.920201972640447784e+05
7.148500000000000298e+00 8.021918671493459260e+05
7.190800000000000303e+00 8.118245535112546058e+05
7.233100000000000307e+00 8.183146045431697275e+05
7.275400000000000311e+00 8.202672876997180283e+05
7.317700000000000315e+00 8.188504324851627462e+05
7.359899999999999665e+00 8.152452358092219802e+05
7.402199999999999669e+00 8.098758748901315266e+05
7.444499999999999673e+00 8.048501416695864173e+05
7.486799999999999677e+00 8.014865732204500819e+05
7.529099999999999682e+00 7.992661697995348368e+05
7.571399999999999686e+00 7.984099815181884915e+05
7.613699999999999690e+00 7.990482337780887028e+05
7.655999999999999694e+00 7.997418730802630307e+05
7.698299999999999699e+00 8.002470837983257370e+05
7.740599999999999703e+00 7.997602757538323058e+05
7.782899999999999707e+00 7.959578345608010422e+05
7.825199999999999712e+00 7.899600582241669763e+05
7.867499999999999716e+00 7.855244617498498410e+05
7.909799999999999720e+00 7.839739045854068827e+05
7.952099999999999724e+00 7.840548032527740579e+05
7.994399999999999729e+00 7.884912354842367349e+05
8.036699999999999733e+00 8.016021405808737036e+05
8.079000000000000625e+00 8.230923261901716469e+05
8.121299999999999741e+00 8.494347879187979270e+05
8.163600000000000634e+00 8.771283656055798056e+05
8.205899999999999750e+00 9.011132574993520975e+05
8.248200000000000642e+00 9.185878652506496292e+05
8.290499999999999758e+00 9.305077890433800640e+05
8.332800000000000651e+00 9.420760864667750429e+05
8.375099999999999767e+00 9.579560489941445412e+05
8.417400000000000659e+00 9.745586570506845601e+05
8.459699999999999775e+00 9.856644629775380017e+05
8.502000000000000668e+00 9.923381156132554170e+05
8.544299999999999784e+00 9.969152166401627474e+05
8.586600000000000676e+00 9.988603614418935031e+05
8.628899999999999793e+00 9.987448699357525911e+05
8.671200000000000685e+00 9.971274625915493816e+05
8.713499999999999801e+00 9.959226507915448165e+05
8.755800000000000693e+00 9.974895261853492120e+05
8.798099999999999810e+00 9.990812512901038863e+05
8.840400000000000702e+00 9.973715097999408608e+05
8.882699999999999818e+00 9.937024969610524131e+05
8.925000000000000711e+00 9.901099783375997795e+05
8.967299999999999827e+00 9.879272390248001320e+05
9.009600000000000719e+00 9.882492901093084365e+05
9.051899999999999835e+00 9.919375289640704868e+05
9.094200000000000728e+00 9.980944660014193505e+05
9.136499999999999844e+00 1.004313852494638413e+06
9.178800000000000736e+00 1.009299919740960118e+06
9.221099999999999852e+00 1.012384287626749487e+06
9.263400000000000745e+00 1.013176986331806984e+06
9.305699999999999861e+00 1.010666031070158584e+06
9.348000000000000753e+00 1.004487674028993701e+06
9.390299999999999869e+00 9.967348692509345710e+05
9.432600000000000762e+00 9.878325937996500870e+05
9.474899999999999878e+00 9.773528092705729650e+05
9.517200000000000770e+00 9.666787448828230845e+05
9.559499999999999886e+00 9.576495699906725204e+05
9.601800000000000779e+00 9.508493602189822122e+05
9.644099999999999895e+00 9.471063695519363973e+05
9.686400000000000787e+00 9.482284591083187843e+05
9.728699999999999903e+00 9.539333007118465612e+05
9.771000000000000796e+00 9.610795675418750616e+05
9.813299999999999912e+00 9.661763303544454975e+05
9.855600000000000804e+00 9.681808889600484399e+05
9.897899999999999920e+00 9.682244299695893424e+05
9.940200000000000813e+00 9.667197488592555746e+05
9.982499999999999929e+00 9.654274114582309267e+05
1.002480000000000082e+01 9.658603609437408159e+05
1.006709999999999994e+01 9.665583126254410017e+05
1.010940000000000083e+01 9.642624991202130914e+05
1.015169999999999995e+01 9.570555707272154978e+05
1.019400000000000084e+01 9.469247684864065377e+05
1.023629999999999995e+01 9.383713780826386064e+05
1.027849999999999930e+01 9.331241056451738114e+05
1.032080000000000020e+01 9.269739138362499652e+05
1.036309999999999931e+01 9.199015267825890332e+05
1.040540000000000020e+01 9.141979820106381085e+05
1.044769999999999932e+01 9.091277948381757597e+05
1.049000000000000021e+01 9.035719788701765938e+05
1.053229999999999933e+01 8.975884969817526871e+05
1.057460000000000022e+01 8.930976637438808102e+05
1.061689999999999934e+01 8.912427056538139004e+05
1.065920000000000023e+01 8.910931894689977635e+05
1.070149999999999935e+01 8.921695939582701540e+05
1.074380000000000024e+01 8.929349408624856733e+05
1.078609999999999935e+01 8.944464329257704085e+05
1.082840000000000025e+01 8.996061090431272751e+05
1.087069999999999936e+01 9.070089253272850765e+05
1.091300000000000026e+01 9.133328062128628371e+05
1.095529999999999937e+01 9.186661161246128613e+05
1.099760000000000026e+01 9.258760666167887393e+05
1.103989999999999938e+01 9.388167198701172601e+05
1.108220000000000027e+01 9.579773506914195605e+05
1.112449999999999939e+01 9.800241669020708650e+05
1.116680000000000028e+01 9.978691508928479161e+05
1.120909999999999940e+01 1.008302497749786242e+06
1.125140000000000029e+01 1.016380315366538940e+06
1.129369999999999941e+01 1.022920291569562280e+06
1.133600000000000030e+01 1.025681984206237015e+06
1.137829999999999941e+01 1.027302273569276673e+06
1.142060000000000031e+01 1.032061713925847551e+06
1.146289999999999942e+01 1.040628593490374507e+06
1.150520000000000032e+01 1.052977089421077864e+06
1.154749999999999943e+01 1.066462375700955279e+06
1.158980000000000032e+01 1.077948484688787721e+06
1.163209999999999944e+01 1.085086309281853726e+06
1.167440000000000033e+01 1.086337159814515151e+06
1.171669999999999945e+01 1.084842761346568353e+06
1.175900000000000034e+01 1.082511804055972025e+06
1.180129999999999946e+01 1.077577695058971643e+06
1.184360000000000035e+01 1.070981280633997172e+06
1.188589999999999947e+01 1.065235081284505082e+06
1.192820000000000036e+01 1.059038251939898590e+06
1.197049999999999947e+01 1.048311222879783018e+06
1.201280000000000037e+01 1.033496316262060544e+06
1.205509999999999948e+01 1.016985416398160742e+06
1.209740000000000038e+01 9.989221110886507668e+05
1.213969999999999949e+01 9.797997553179985844e+05
1.218200000000000038e+01 9.611344511919124052e+05
1.222429999999999950e+01 9.432648018281225814e+05
1.226660000000000039e+01 9.260731508907425450e+05
1.230889999999999951e+01 9.112006688504167832e+05
1.235120000000000040e+01 9.004951800833566813e+05
1.239349999999999952e+01 8.945907503377846442e+05
1.243580000000000041e+01 8.923725321914358065e+05
1.247809999999999953e+01 8.924145845324809197e+05
1.252040000000000042e+01 8.924302039819849888e+05
1.256269999999999953e+01 8.908288319892152213e+05
1.260500000000000043e+01 8.889260076568083605e+05
1.264729999999999954e+01 8.864645246018635808e+05
1.268960000000000043e+01 8.830043705257684924e+05
1.273189999999999955e+01 8.774070536336827790e+05
1.277420000000000044e+01 8.674756251800722675e+05
1.281649999999999956e+01 8.537056518651675433e+05
1.285880000000000045e+01 8.368576106431158260e+05
1.290109999999999957e+01 8.185970450631252024e+05
1.294340000000000046e+01 8.017848877487391001e+05
1.298569999999999958e+01 7.876201105895389337e+05
1.302800000000000047e+01 7.738157977096210234e+05
1.307029999999999959e+01 7.601068799665804254e+05
1.311260000000000048e+01 7.472752145048279781e+05
1.315489999999999959e+01 7.337874710540527012e+05
1.319710000000000072e+01 7.208312638734488282e+05
1.323939999999999984e+01 7.100470199466858758e+05
1.328170000000000073e+01 7.000350303204341326e+05
1.332399999999999984e+01 6.884975232718668412e+05
1.336630000000000074e+01 6.759270027696131729e+05
1.340859999999999985e+01 6.643271437646024860e+05
1.345090000000000074e+01 6.537501623919093981e+05
1.349319999999999986e+01 6.453744834510205546e+05
1.353550000000000075e+01 6.401052549151376588e+05
1.357779999999999987e+01 6.368837625092767412e+05
1.362010000000000076e+01 6.346365238722800277e+05
1.366239999999999988e+01 6.308805177706549875e+05
1.370470000000000077e+01 6.231861336591532454e+05
1.374699999999999989e+01 6.124417275137337856e+05
1.378930000000000078e+01 5.992969378132338170e+05
1.383159999999999989e+01 5.852533030208400451e+05
1.387390000000000079e+01 5.719439202764231013e+05
1.391619999999999990e+01 5.591518883424864616e+05
1.395850000000000080e+01 5.474788969831103459e+05
1.400079999999999991e+01 5.385076995960057247e+05
1.404310000000000080e+01 5.320407051179900300e+05
1.408539999999999992e+01 5.271190102683539735e+05
1.412770000000000081e+01 5.234649730622468633e+05
1.416999999999999993e+01 5.213938564736861154e+05
1.421230000000000082e+01 5.199705895407894859e+05
1.425459999999999994e+01 5.196794390470034559e+05
1.429690000000000083e+01 5.226645090767517104e+05
1.433919999999999995e+01 5.295095310598821379e+05
1.438150000000000084e+01 5.396737453924089205e+05
1.442379999999999995e+01 5.507964781333947321e+05
1.446610000000000085e+01 5.591091749935318949e+05
1.450839999999999996e+01 5.633846074996772222e+05
1.455070000000000086e+01 5.639906336347925244e+05
1.459299999999999997e+01 5.614000401527014328e+05
1.463530000000000086e+01 5.567048018743897555e+05
1.467759999999999998e+01 5.507251607400886714e+05
1.471990000000000087e+01 5.421214125740589807e+05
1.476219999999999999e+01 5.306018674630398164e+05
1.480450000000000088e+01 5.182498999548392021e+05
1.484680000000000000e+01 5.073898867128689308e+05
1.488909999999999911e+01 4.985297585370438173e+05
1.493140000000000001e+01 4.911881098512386088e+05
1.497369999999999912e+01 4.846362763638332835e+05
1.501600000000000001e+01 4.787870495458228979e+05
1.505829999999999913e+01 4.734736598528380855e+05
1.510060000000000002e+01 4.689191949081266066e+05
1.514289999999999914e+01 4.665460413695414900e+05
1.518520000000000003e+01 4.665567536690890556e+05
1.522749999999999915e+01 4.669018091604051297e+05
1.526980000000000004e+01 4.669422612606806215e+05
1.531209999999999916e+01 4.660067232309434912e+05
1.535440000000000005e+01 4.620234707264332683e+05
1.539669999999999916e+01 4.553956089592577191e+05
1.543900000000000006e+01 4.469658404437957215e+05
1.548129999999999917e+01 4.368143802121717017e+05
1.552360000000000007e+01 4.254656342218889040e+05
1.556589999999999918e+01 4.136440694155904348e+05
1.560820000000000007e+01 4.027666996000031359e+05
1.565049999999999919e+01 3.938635315519016003e+05
1.569280000000000008e+01 3.863463427805187530e+05
1.573509999999999920e+01 3.792458104307159665e+05
1.577740000000000009e+01 3.733777452328975778e+05
1.581969999999999921e+01 3.702503578228753177e+05
1.586200000000000010e+01 3.698502363342999015e+05
1.590429999999999922e+01 3.710586053587671486e+05
1.594660000000000011e+01 3.722810181224983535e+05
1.598889999999999922e+01 3.709042257163172471e+05
1.603119999999999834e+01 3.645451354960033786e+05
1.607349999999999923e+01 3.552778407722642296e+05
1.611580000000000013e+01 3.464514321109393495e+05
1.615800000000000125e+01 3.395568885447379434e+05
1.620029999999999859e+01 3.347131276053418405e+05
1.624259999999999948e+01 3.320069481158742565e+05
1.628490000000000038e+01 3.303446852108449093e+05
1.632720000000000127e+01 3.282094077820326784e+05
1.636949999999999861e+01 3.259995225982312695e+05
1.641179999999999950e+01 3.242416376984657836e+05
1.645410000000000039e+01 3.209562349161218735e+05
1.649640000000000128e+01 3.161102127121656667e+05
1.653869999999999862e+01 3.120260362166195991e+05
1.658099999999999952e+01 3.080070701659060433e+05
1.662330000000000041e+01 3.017768342717016349e+05
1.666560000000000130e+01 2.937157469665535609e+05
1.670789999999999864e+01 2.867926442784036044e+05
1.675019999999999953e+01 2.825348709997974802e+05
1.679250000000000043e+01 2.808891287127227988e+05
1.683480000000000132e+01 2.810515370676846360e+05
