# energy(eV) alpha
0.000000000000000000e+00 0.000000000000000000e+00
4.120000000000000051e-02 1.744956068270480110e+00
8.250000000000000389e-02 6.987428199800746143e+00
1.237000000000000044e-01 1.581279173872895605e+01
1.650000000000000078e-01 2.820436265124803654e+01
2.061999999999999944e-01 4.429359351292626457e+01
2.474000000000000088e-01 6.398482209985392188e+01
2.887000000000000122e-01 8.776680539700376471e+01
3.299000000000000266e-01 1.152354675400199682e+02
3.711999999999999744e-01 1.467425389791538350e+02
4.123999999999999888e-01 1.829668878564640124e+02
4.536000000000000032e-01 2.238531292960287828e+02
4.949000000000000066e-01 2.692288949129751359e+02
5.361000000000000210e-01 3.194979425337140242e+02
5.774000000000000243e-01 3.749431523271672404e+02
6.186000000000000387e-01 4.365996505126738043e+02
6.598000000000000531e-01 5.048777097418308699e+02
7.010999999999999455e-01 5.796387449468255681e+02
7.422999999999999599e-01 6.603748370870677036e+02
7.835999999999999632e-01 7.511513352949272075e+02
8.247999999999999776e-01 8.505042995930948564e+02
8.659999999999999920e-01 9.596185273264352418e+02
9.072999999999999954e-01 1.079073306660389790e+03
9.485000000000000098e-01 1.212130200303576203e+03
9.898000000000000131e-01 1.359828031155361487e+03
1.030999999999999917e+00 1.523494151855340988e+03
1.072200000000000042e+00 1.707467714888742194e+03
1.113499999999999934e+00 1.913925056444666097e+03
1.154700000000000060e+00 2.149121343554466876e+03
1.195999999999999952e+00 2.418754193401829525e+03
1.237200000000000077e+00 2.731970746338252411e+03
1.278399999999999981e+00 3.101207551326720022e+03
1.319700000000000095e+00 3.545960439827398204e+03
1.360899999999999999e+00 4.097843514440676699e+03
1.402199999999999891e+00 4.804798015522980677e+03
1.443400000000000016e+00 5.747808990580308091e+03
1.484599999999999920e+00 7.050168848001025253e+03
1.525900000000000034e+00 8.825999094588994922e+03
1.567099999999999937e+00 1.094855389799036675e+04
1.608400000000000052e+00 1.320014762596623223e+04
1.649599999999999955e+00 1.567313871542699962e+04
1.690800000000000081e+00 1.856308926278131912e+04
1.732099999999999973e+00 2.239975381673996162e+04
1.773300000000000098e+00 2.680660070893286684e+04
1.814599999999999991e+00 3.040434412918978705e+04
1.855799999999999894e+00 3.226658979004084904e+04
1.897000000000000020e+00 3.304957750689879322e+04
1.938299999999999912e+00 3.387776358584463742e+04
1.979500000000000037e+00 3.551252310662669333e+04
2.020799999999999930e+00 3.827605749198309059e+04
2.061999999999999833e+00 4.308782450243311905e+04
2.103200000000000180e+00 4.921289628289880784e+04
2.144499999999999851e+00 5.478732090299979609e+04
2.185700000000000198e+00 6.155998166903388483e+04
2.226999999999999869e+00 7.015419168682597228e+04
2.268200000000000216e+00 7.912042911366440239e+04
2.309400000000000119e+00 8.996460891974970582e+04
2.350699999999999790e+00 1.043898739038670319e+05
2.391900000000000137e+00 1.218948650632968202e+05
2.433199999999999807e+00 1.415450160566539853e+05
2.474400000000000155e+00 1.662372158582663978e+05
2.515600000000000058e+00 1.950016513547859504e+05
2.556900000000000173e+00 2.174751818981617398e+05
2.598100000000000076e+00 2.232623737768160936e+05
2.639400000000000190e+00 2.111750940365363786e+05
2.680600000000000094e+00 1.900854016514512477e+05
2.721799999999999997e+00 1.683348335163155280e+05
2.763100000000000112e+00 1.504613022175621882e+05
2.804300000000000015e+00 1.390037604244774848e+05
2.845600000000000129e+00 1.342755646556343709e+05
2.886800000000000033e+00 1.343107265440801275e+05
2.927999999999999936e+00 1.357613379328091396e+05
2.969300000000000050e+00 1.384167489160026016e+05
3.010499999999999954e+00 1.417637638296772202e+05
3.051699999999999857e+00 1.452478153104858065e+05
3.092999999999999972e+00 1.504238444148938288e+05
3.134199999999999875e+00 1.593212877028156654e+05
3.175499999999999989e+00 1.710249855119114800e+05
3.216699999999999893e+00 1.810890152776976465e+05
3.257899999999999796e+00 1.868887478307180281e+05
3.299199999999999910e+00 1.897704056524422194e+05
3.340399999999999814e+00 1.916346621315429220e+05
3.381699999999999928e+00 1.936568775959714258e+05
3.422899999999999832e+00 1.950587042571510246e+05
3.464100000000000179e+00 1.944665417597185588e+05
3.505399999999999849e+00 1.920644732706253708e+05
3.546600000000000197e+00 1.882693504135929397e+05
3.587899999999999867e+00 1.849443820400345430e+05
3.629100000000000215e+00 1.851803916194341728e+05
3.670300000000000118e+00 1.908444455270416802e+05
3.711599999999999788e+00 2.019715506346308102e+05
3.752800000000000136e+00 2.162351165863193455e+05
3.794099999999999806e+00 2.297387348820534535e+05
3.835300000000000153e+00 2.407299501802763843e+05
3.876500000000000057e+00 2.486169869619715610e+05
3.917800000000000171e+00 2.537877437093073968e+05
3.959000000000000075e+00 2.570921246936864918e+05
4.000300000000000189e+00 2.612849050378160027e+05
4.041500000000000092e+00 2.668179934963597916e+05
4.082699999999999996e+00 2.717826113530166331e+05
4.123999999999999666e+00 2.748289837519832654e+05
4.165199999999999569e+00 2.768316158113188576e+05
4.206500000000000128e+00 2.801963318325426662e+05
4.247700000000000031e+00 2.865269233063000138e+05
4.288899999999999935e+00 2.975173166036902112e+05
4.330199999999999605e+00 3.147672550237998948e+05
4.371400000000000396e+00 3.362741673393835081e+05
4.412700000000000067e+00 3.577277528802989400e+05
4.453899999999999970e+00 3.767373513241075561e+05
4.495099999999999874e+00 3.899677095842649578e+05
4.536400000000000432e+00 3.972201624819489080e+05
4.577600000000000335e+00 4.034273431349472376e+05
4.618900000000000006e+00 4.133643491011721781e+05
4.660099999999999909e+00 4.266731571936233668e+05
4.701299999999999812e+00 4.414986065317873145e+05
4.742600000000000371e+00 4.570034144931225455e+05
4.783800000000000274e+00 4.718381412233801675e+05
4.825099999999999945e+00 4.855908848618843476e+05
4.866299999999999848e+00 4.997738879416631535e+05
4.907499999999999751e+00 5.131225525557399960e+05
4.948800000000000310e+00 5.228492019578960026e+05
4.990000000000000213e+00 5.288575755820182385e+05
5.031299999999999883e+00 5.314374285965753952e+05
5.072499999999999787e+00 5.317353806321894517e+05
5.113699999999999690e+00 5.305292051830585115e+05
5.155000000000000249e+00 5.294379831701163203e+05
5.196200000000000152e+00 5.288599731358919526e+05
5.237499999999999822e+00 5.269922262401091866e+05
5.278699999999999726e+00 5.229777472922488814e+05
5.319899999999999629e+00 5.174071873758140136e+05
5.361200000000000188e+00 5.112930524225627305e+05
5.402400000000000091e+00 5.062900817263842910e+05
5.443699999999999761e+00 5.035890186565398471e+05
5.484899999999999665e+00 5.008763202505777590e+05
5.526099999999999568e+00 4.959348553377784556e+05
5.567400000000000126e+00 4.912292337480800343e+05
5.608600000000000030e+00 4.898926413290206110e+05
5.649899999999999700e+00 4.905509970287787146e+05
5.691099999999999604e+00 4.909556966820375528e+05
5.732300000000000395e+00 4.905547981009037467e+05
5.773600000000000065e+00 4.911807059092582786e+05
5.814799999999999969e+00 4.947681425250569009e+05
5.856099999999999639e+00 5.000074923702982487e+05
5.897300000000000431e+00 5.052256196630881168e+05
5.938500000000000334e+00 5.098834248022333486e+05
5.979800000000000004e+00 5.121798563944955822e+05
6.020999999999999908e+00 5.116518723975364701e+05
6.062299999999999578e+00 5.107685155535454978e+05
6.103500000000000369e+00 5.107294993807931314e+05
6.144700000000000273e+00 5.114123166846254026e+05
6.185999999999999943e+00 5.134727269491960178e+05
6.227199999999999847e+00 5.175532361863487749e+05
6.268500000000000405e+00 5.239594941017824458e+05
6.309700000000000308e+00 5.323997634998630965e+05
6.350900000000000212e+00 5.407859139935517451e+05
6.392199999999999882e+00 5.484531509428611025e+05
6.433399999999999785e+00 5.586066775149852037e+05
6.474700000000000344e+00 5.740666402253399137e+05
6.515900000000000247e+00 5.935960134445797885e+05
6.557100000000000151e+00 6.129174602204447147e+05
6.598399999999999821e+00 6.294441885206991574e+05
6.639599999999999724e+00 6.413803720008805394e+05
6.680900000000000283e+00 6.502257466698568314e+05
6.722100000000000186e+00 6.585612641719717067e+05
6.763300000000000090e+00 6.669450209151500603e+05
6.804599999999999760e+00 6.748263153439607704e+05
6.845799999999999663e+00 6.810205232936018147e+05
6.887100000000000222e+00 6.851366279083456611e+05
6.928300000000000125e+00 6.870601781399049796e+05
6.969500000000000028e+00 6.881023382172394777e+05
7.010799999999999699e+00 6.906127053741465788e+05
7.051999999999999602e+00 6.962611944598994451e+05
7.093300000000000161e+00 7.045724124471117975e+05
7.134500000000000064e+00 7.122760481654378818e+05
7.175699999999999967e+00 7.159985365296170348e+05
7.216999999999999638e+00 7.149351476000887342e+05
7.258200000000000429e+00 7.107514868291799212e+05
7.299500000000000099e+00 7.064113187508111587e+05
7.340700000000000003e+00 7.039941202490925789e+05
7.381899999999999906e+00 7.020754987489699852e+05
7.423199999999999577e+00 6.993867729212534614e+05
7.464400000000000368e+00 6.942176135714683915e+05
7.505700000000000038e+00 6.857002448362151626e+05
7.546899999999999942e+00 6.762707676014204044e+05
7.588099999999999845e+00 6.679098245974725578e+05
7.629400000000000404e+00 6.622402803508982761e+05
7.670600000000000307e+00 6.608861186566004762e+05
7.711899999999999977e+00 6.621081014964899514e+05
7.753099999999999881e+00 6.631750903381886892e+05
7.794299999999999784e+00 6.639325090909757419e+05
7.835600000000000342e+00 6.673582734096554341e+05
7.876800000000000246e+00 6.758617673419269267e+05
7.918099999999999916e+00 6.904395270386573393e+05
7.959299999999999820e+00 7.101498741547435056e+05
8.000500000000000611e+00 7.308672906260276213e+05
8.041800000000000281e+00 7.491438951924822759e+05
8.083000000000000185e+00 7.652062712480773916e+05
8.124299999999999855e+00 7.782460193694133777e+05
8.165499999999999758e+00 7.865086932269071694e+05
8.206699999999999662e+00 7.900465959068090888e+05
8.247999999999999332e+00 7.892825357953173807e+05
8.289199999999999235e+00 7.837776587728556478e+05
8.330500000000000682e+00 7.737228496402057353e+05
8.371700000000000585e+00 7.614566200071536005e+05
8.412900000000000489e+00 7.490647666005274514e+05
8.454200000000000159e+00 7.363540201951222261e+05
8.495400000000000063e+00 7.226990171899906127e+05
8.536699999999999733e+00 7.084804260991340270e+05
8.577899999999999636e+00 6.955170679065100849e+05
8.619099999999999540e+00 6.851582013192797313e+05
8.660399999999999210e+00 6.766493594556335593e+05
8.701599999999999113e+00 6.690139102775520878e+05
8.742800000000000793e+00 6.623922731812205166e+05
8.784100000000000463e+00 6.554086241570719285e+05
8.825300000000000367e+00 6.465202240115141030e+05
8.866600000000000037e+00 6.370691781978402287e+05
8.907799999999999940e+00 6.272345613721691770e+05
8.948999999999999844e+00 6.155929395528575405e+05
8.990299999999999514e+00 6.026396458220960340e+05
9.031499999999999417e+00 5.905679967034435831e+05
9.072800000000000864e+00 5.805552999308049912e+05
9.114000000000000767e+00 5.734836709393158089e+05
9.155200000000000671e+00 5.711056764023834839e+05
9.196500000000000341e+00 5.731014682321866276e+05
9.237700000000000244e+00 5.768689064536638325e+05
9.278999999999999915e+00 5.813435177087461343e+05
9.320199999999999818e+00 5.867043236086772522e+05
9.361399999999999721e+00 5.949781266869283281e+05
9.402699999999999392e+00 6.068691053641892504e+05
9.443899999999999295e+00 6.205446606891218107e+05
9.485200000000000742e+00 6.349980078474344919e+05
9.526400000000000645e+00 6.507500592483526561e+05
9.567600000000000549e+00 6.699533669916822109e+05
9.608900000000000219e+00 6.959535670572906965e+05
9.650100000000000122e+00 7.303962251884998986e+05
9.691399999999999793e+00 7.704756241053146077e+05
9.732599999999999696e+00 8.110585434055405203e+05
9.773799999999999599e+00 8.509786496113251196e+05
9.815099999999999270e+00 8.905350646795590874e+05
9.856299999999999173e+00 9.267470026569633046e+05
9.897600000000000620e+00 9.559737475250399439e+05
9.938800000000000523e+00 9.772946126602601726e+05
9.980000000000000426e+00 9.928074535828095395e+05
1.002130000000000010e+01 1.006345279752189992e+06
1.006250000000000000e+01 1.017343196673254133e+06
1.010379999999999967e+01 1.025377794847107842e+06
1.014499999999999957e+01 1.031128739441639977e+06
1.018619999999999948e+01 1.029989956646427861e+06
1.022749999999999915e+01 1.023663934044711757e+06
1.026870000000000083e+01 1.017738381590516656e+06
1.031000000000000050e+01 1.011836994281140971e+06
1.035120000000000040e+01 1.003078989363652072e+06
1.039240000000000030e+01 9.926470784083185717e+05
1.043369999999999997e+01 9.805409442110442324e+05
1.047489999999999988e+01 9.663721616478418000e+05
1.051619999999999955e+01 9.506640653459196910e+05
1.055739999999999945e+01 9.325132002654151293e+05
1.059859999999999935e+01 9.126397489242719021e+05
1.063990000000000080e+01 8.942899422781317262e+05
1.068110000000000070e+01 8.801808201207212405e+05
1.072240000000000038e+01 8.701861906171124429e+05
1.076360000000000028e+01 8.635720087465287652e+05
1.080480000000000018e+01 8.592749110590468626e+05
1.084609999999999985e+01 8.555604479262015084e+05
1.088729999999999976e+01 8.542878961334491614e+05
1.092859999999999943e+01 8.583833746766955592e+05
1.096979999999999933e+01 8.657052573058423586e+05
1.101099999999999923e+01 8.752570697850486031e+05
1.105230000000000068e+01 8.874205513478291687e+05
1.109350000000000058e+01 8.988667543233571341e+05
1.113480000000000025e+01 9.080467528507331153e+05
1.117600000000000016e+01 9.165665884588541230e+05
1.121720000000000006e+01 9.248891890662579099e+05
1.125849999999999973e+01 9.315602160363981966e+05
1.129969999999999963e+01 9.373581544780384284e+05
1.134099999999999930e+01 9.451388605518585537e+05
1.138219999999999921e+01 9.552619018604062730e+05
1.142340000000000089e+01 9.646271890948410146e+05
1.146470000000000056e+01 9.711520434351268923e+05
1.150590000000000046e+01 9.741387918219622225e+05
1.154720000000000013e+01 9.731534432967450703e+05
1.158840000000000003e+01 9.700185500835577259e+05
1.162959999999999994e+01 9.668020337387445616e+05
1.167089999999999961e+01 9.643931962898510974e+05
1.171209999999999951e+01 9.607175429542356869e+05
1.175339999999999918e+01 9.535072375724029262e+05
1.179460000000000086e+01 9.425394660936250584e+05
1.183580000000000076e+01 9.274970340136041632e+05
1.187710000000000043e+01 9.080188645988220815e+05
1.191830000000000034e+01 8.865457953336307546e+05
1.195960000000000001e+01 8.680394322714365553e+05
1.200079999999999991e+01 8.538824480804471532e+05
1.204199999999999982e+01 8.435718571518433746e+05
1.208329999999999949e+01 8.387197437773005804e+05
1.212449999999999939e+01 8.365332159031907795e+05
1.216580000000000084e+01 8.322570336078874534e+05
1.220700000000000074e+01 8.249434521321417997e+05
1.224820000000000064e+01 8.147060300472525414e+05
1.228950000000000031e+01 8.017342217118864646e+05
1.233070000000000022e+01 7.882956201520552859e+05
1.237199999999999989e+01 7.779391651477450505e+05
1.241319999999999979e+01 7.728050028018428711e+05
1.245439999999999969e+01 7.720921981418051291e+05
1.249569999999999936e+01 7.749383068941374077e+05
1.253689999999999927e+01 7.808408801104199374e+05
1.257820000000000071e+01 7.879083076506328071e+05
1.261940000000000062e+01 7.957192732967674965e+05
1.266060000000000052e+01 8.056240110541847534e+05
1.270190000000000019e+01 8.184141606483828509e+05
1.274310000000000009e+01 8.336289298894456588e+05
1.278439999999999976e+01 8.505787850398744922e+05
1.282559999999999967e+01 8.682010121653481619e+05
1.286679999999999957e+01 8.856574826378310099e+05
1.290809999999999924e+01 9.034159174077509670e+05
1.294929999999999914e+01 9.215512377756475471e+05
1.299060000000000059e+01 9.409949757992660161e+05
1.303180000000000049e+01 9.622880895765828900e+05
1.307300000000000040e+01 9.829020940549663501e+05
1.311430000000000007e+01 9.999204538745210739e+05
1.315549999999999997e+01 1.013901946502746665e+06
1.319679999999999964e+01 1.026915131592649501e+06
1.323799999999999955e+01 1.039369161636258359e+06
1.327919999999999945e+01 1.049672806336225942e+06
1.332049999999999912e+01 1.056303023143947823e+06
1.336170000000000080e+01 1.060341220079734689e+06
1.340300000000000047e+01 1.063435796135807876e+06
1.344420000000000037e+01 1.065121573996141786e+06
1.348540000000000028e+01 1.064249733703745529e+06
1.352669999999999995e+01 1.060000045543421991e+06
1.356789999999999985e+01 1.051515912508385489e+06
1.360919999999999952e+01 1.038494291945011704e+06
1.365039999999999942e+01 1.021301444269139203e+06
1.369159999999999933e+01 1.003419043306024629e+06
1.373290000000000077e+01 9.873225447011200013e+05
1.377410000000000068e+01 9.708038088840154232e+05
1.381540000000000035e+01 9.514343354768875288e+05
1.385660000000000025e+01 9.305472562841863837e+05
1.389780000000000015e+01 9.106096632697774330e+05
1.393909999999999982e+01 8.922114874613172142e+05
1.398029999999999973e+01 8.752736565821850672e+05
1.402159999999999940e+01 8.598108973247772083e+05
1.406279999999999930e+01 8.453878468229110586e+05
1.410399999999999920e+01 8.304757503850923385e+05
1.414530000000000065e+01 8.146544278141701361e+05
1.418650000000000055e+01 7.977145869146172190e+05
1.422780000000000022e+01 7.801545525858539622e+05
1.426900000000000013e+01 7.638057006417976227e+05
1.431020000000000003e+01 7.497829321645994205e+05
1.435149999999999970e+01 7.372441953126156004e+05
1.439269999999999960e+01 7.247702649290080881e+05
1.443389999999999951e+01 7.122926610207488993e+05
1.447519999999999918e+01 7.004168654835269554e+05
1.451640000000000086e+01 6.892463606162533397e+05
1.455770000000000053e+01 6.788939201355701080e+05
1.459890000000000043e+01 6.701292380853551440e+05
1.464010000000000034e+01 6.622138646949304966e+05
1.468140000000000001e+01 6.529725073734816397e+05
1.472259999999999991e+01 6.423513887231596746e+05
1.476389999999999958e+01 6.318700737004341790e+05
1.480509999999999948e+01 6.223450954723035684e+05
1.484629999999999939e+01 6.148031813361606328e+05
1.488760000000000083e+01 6.103520578780788928e+05
1.492880000000000074e+01 6.077914770907720085e+05
1.497010000000000041e+01 6.054093225220696768e+05
1.501130000000000031e+01 6.024448194646521006e+05
1.505250000000000021e+01 5.989976758531664964e+05
1.509379999999999988e+01 5.949940340913613327e+05
1.513499999999999979e+01 5.907559194672858575e+05
1.517629999999999946e+01 5.872178122016332345e+05
1.521749999999999936e+01 5.841935878230186645e+05
1.525869999999999926e+01 5.804619180078956997e+05
1.530000000000000071e+01 5.754811037434303435e+05
1.534120000000000061e+01 5.696459991678764345e+05
1.538250000000000028e+01 5.642924527353774756e+05
1.542370000000000019e+01 5.601760831441316986e+05
1.546490000000000009e+01 5.564858775242541451e+05
1.550619999999999976e+01 5.518303163098669611e+05
1.554739999999999966e+01 5.459987996757886140e+05
1.558869999999999933e+01 5.393764534373269416e+05
1.562989999999999924e+01 5.313407085700938478e+05
1.567109999999999914e+01 5.225837864998041769e+05
1.571240000000000059e+01 5.165917688453342416e+05
1.575360000000000049e+01 5.157143923899487127e+05
1.579490000000000016e+01 5.197530630741904024e+05
1.583610000000000007e+01 5.286050647647917503e+05
1.587729999999999997e+01 5.433580563604417257e+05
1.591859999999999964e+01 5.630815176556153456e+05
1.595979999999999954e+01 5.850189108873063233e+05
1.600110000000000099e+01 6.105787604221146321e+05
1.604230000000000089e+01 6.452703019738440635e+05
1.608350000000000080e+01 6.916007303157484857e+05
1.612480000000000047e+01 7.414047113639104646e+05
1.616600000000000037e+01 7.810470168350059539e+05
1.620730000000000004e+01 8.041951580877958331e+05
1.624849999999999994e+01 8.092160169904468348e+05
1.628969999999999985e+01 8.002384346420128131e+05
1.633099999999999952e+01 7.867087540768221952e+05
1.637219999999999942e+01 7.762895471724439412e+05
1.641349999999999909e+01 7.714420506730488269e+05
