# energy(eV) alpha
0.000000000000000000e+00 0.000000000000000000e+00
4.030000000000000249e-02 5.632880306369596468e-01
8.060000000000000497e-02 2.253037844050561844e+00
1.208999999999999936e-01 5.406879474177771705e+00
1.612999999999999989e-01 9.466804731697633812e+00
2.016000000000000014e-01 1.464718579327920622e+01
2.419000000000000039e-01 2.095118767360172995e+01
2.822000000000000064e-01 2.890371867008548534e+01
3.225000000000000089e-01 3.782672446465512195e+01
3.628000000000000114e-01 4.760649152635370740e+01
4.032000000000000028e-01 5.926872628446893998e+01
4.435000000000000053e-01 7.176977427348344918e+01
4.838000000000000078e-01 8.590882883593842223e+01
5.241000000000000103e-01 1.008202369416873552e+02
5.644000000000000128e-01 1.174377408041591480e+02
6.047000000000000153e-01 1.358702879641367645e+02
6.451000000000000068e-01 1.544525639859307091e+02
6.854000000000000092e-01 1.754549842193804068e+02
7.257000000000000117e-01 1.977735955508934751e+02
7.660000000000000142e-01 2.206912088899395030e+02
8.063000000000000167e-01 2.463360330058796137e+02
8.466000000000000192e-01 2.741345394814674705e+02
8.870000000000000107e-01 3.017702360629559166e+02
9.273000000000000131e-01 3.332310448884983316e+02
9.676000000000000156e-01 3.635146101986726421e+02
1.007900000000000018e+00 3.978596816909826543e+02
1.048200000000000021e+00 4.336902884682360764e+02
1.088500000000000023e+00 4.709937387392095616e+02
1.128900000000000015e+00 5.118873902622233345e+02
1.169200000000000017e+00 5.521901954030719253e+02
1.209500000000000020e+00 5.972766404291821800e+02
1.249800000000000022e+00 6.440095354994530226e+02
1.290100000000000025e+00 6.923830094062637954e+02
1.330400000000000027e+00 7.423781465605836729e+02
1.370800000000000018e+00 7.965481411466734016e+02
1.411100000000000021e+00 8.536896454959901348e+02
1.451400000000000023e+00 9.126221411211760142e+02
1.491700000000000026e+00 9.760445761547944130e+02
1.532000000000000028e+00 1.042746443486395037e+03
1.572300000000000031e+00 1.111395560003063338e+03
1.612700000000000022e+00 1.186424011321703574e+03
1.653000000000000025e+00 1.261975831826187459e+03
1.693300000000000027e+00 1.345659216246088135e+03
1.733600000000000030e+00 1.433147638005673343e+03
1.773900000000000032e+00 1.521327485070049761e+03
1.814200000000000035e+00 1.619832587070126920e+03
1.854600000000000026e+00 1.722569718983796292e+03
1.894900000000000029e+00 1.829394272890720458e+03
1.935200000000000031e+00 1.945663051693664329e+03
1.975500000000000034e+00 2.066415834633902250e+03
2.015800000000000036e+00 2.197068100340199180e+03
2.056099999999999817e+00 2.336115502745128197e+03
2.096499999999999808e+00 2.483880070503786555e+03
2.136800000000000033e+00 2.640345866051809026e+03
2.177099999999999813e+00 2.809630383657817674e+03
2.217400000000000038e+00 2.994016667768877596e+03
2.257699999999999818e+00 3.192018088190446178e+03
2.298000000000000043e+00 3.403879707030745976e+03
2.338400000000000034e+00 3.638215245581884574e+03
2.378699999999999815e+00 3.891173649468964413e+03
2.419000000000000039e+00 4.169543516499307771e+03
2.459299999999999820e+00 4.476074701740732962e+03
2.499600000000000044e+00 4.824144522608543411e+03
2.539899999999999824e+00 5.214774570478231908e+03
2.580200000000000049e+00 5.668665975662193887e+03
2.620600000000000041e+00 6.196265278988786122e+03
2.660899999999999821e+00 6.832309255156249492e+03
2.701200000000000045e+00 7.622873385605364092e+03
2.741499999999999826e+00 8.588212654488297630e+03
2.781800000000000050e+00 9.661249464558683030e+03
2.822099999999999831e+00 1.079216163541414426e+04
2.862499999999999822e+00 1.219193710765696051e+04
2.902800000000000047e+00 1.416094947592400422e+04
2.943099999999999827e+00 1.670014522057212889e+04
2.983400000000000052e+00 1.919994346669668448e+04
3.023699999999999832e+00 2.119342670920065939e+04
3.064000000000000057e+00 2.366921416193663390e+04
3.104400000000000048e+00 2.761276981365150641e+04
3.144699999999999829e+00 3.274106258288997924e+04
3.185000000000000053e+00 3.779674820710151107e+04
3.225299999999999834e+00 4.263564996339008212e+04
3.265600000000000058e+00 4.945666885447709501e+04
3.305899999999999839e+00 5.955453187160837115e+04
3.346299999999999830e+00 7.203544252955852426e+04
3.386600000000000055e+00 8.530870265684173501e+04
3.426899999999999835e+00 9.868882112905303075e+04
3.467200000000000060e+00 1.106230677843440935e+05
3.507499999999999840e+00 1.192997732126961055e+05
3.547800000000000065e+00 1.246643001039821538e+05
3.588200000000000056e+00 1.273945772435573599e+05
3.628499999999999837e+00 1.287600142923919339e+05
3.668800000000000061e+00 1.297475582606873213e+05
3.709099999999999842e+00 1.303900515434425761e+05
3.749400000000000066e+00 1.324451905973590328e+05
3.789699999999999847e+00 1.380984203774984926e+05
3.830099999999999838e+00 1.468642941810209013e+05
3.870400000000000063e+00 1.562484586204070074e+05
3.910699999999999843e+00 1.654344990379906958e+05
3.951000000000000068e+00 1.747632614037267631e+05
3.991299999999999848e+00 1.828535137331275619e+05
4.031600000000000072e+00 1.883756730981793953e+05
4.072000000000000064e+00 1.912920970416559139e+05
4.112300000000000288e+00 1.919161261984706216e+05
4.152599999999999625e+00 1.924219789438550361e+05
4.192899999999999849e+00 1.945288199259939720e+05
4.233200000000000074e+00 2.002637109169784235e+05
4.273500000000000298e+00 2.102096957769563305e+05
4.313900000000000290e+00 2.228008221910436114e+05
4.354199999999999626e+00 2.345407147631409753e+05
4.394499999999999851e+00 2.435417807720876881e+05
4.434800000000000075e+00 2.520099190912751656e+05
4.475100000000000300e+00 2.615422976521884848e+05
4.515399999999999636e+00 2.699087513132474851e+05
4.555799999999999628e+00 2.757345714916999568e+05
4.596099999999999852e+00 2.809355559626751347e+05
4.636400000000000077e+00 2.863164244896859745e+05
4.676700000000000301e+00 2.917156295193509432e+05
4.716999999999999638e+00 2.978258543416451430e+05
4.757299999999999862e+00 3.042751154073652579e+05
4.797699999999999854e+00 3.107515761227521580e+05
4.838000000000000078e+00 3.168865649424092844e+05
4.878300000000000303e+00 3.235063286978523247e+05
4.918599999999999639e+00 3.332388137042922317e+05
4.958899999999999864e+00 3.473171227488218574e+05
4.999200000000000088e+00 3.636338255097568035e+05
5.039500000000000313e+00 3.774633002998224110e+05
5.079900000000000304e+00 3.859423839789860067e+05
5.120199999999999640e+00 3.911468631028356613e+05
5.160499999999999865e+00 3.978006077281458420e+05
5.200800000000000090e+00 4.087095657874128665e+05
5.241100000000000314e+00 4.242365525638089748e+05
5.281399999999999650e+00 4.432268676187581732e+05
5.321799999999999642e+00 4.647199339789201040e+05
5.362099999999999866e+00 4.882635188051370787e+05
5.402400000000000091e+00 5.108885281890023034e+05
5.442700000000000315e+00 5.267227256738044089e+05
5.482999999999999652e+00 5.336675565077994252e+05
5.523299999999999876e+00 5.363656898850864964e+05
5.563699999999999868e+00 5.385946425827237545e+05
5.604000000000000092e+00 5.389010782365605701e+05
5.644300000000000317e+00 5.356674718369498150e+05
5.684599999999999653e+00 5.331667793296754826e+05
5.724899999999999878e+00 5.317026980697794352e+05
5.765200000000000102e+00 5.268621800965745933e+05
5.805600000000000094e+00 5.200210842601781478e+05
5.845900000000000318e+00 5.167358824304678710e+05
5.886199999999999655e+00 5.202018770247660577e+05
5.926499999999999879e+00 5.278856719417216955e+05
5.966800000000000104e+00 5.363331065859795781e+05
6.007100000000000328e+00 5.459367991633208003e+05
6.047500000000000320e+00 5.576897001582436496e+05
6.087799999999999656e+00 5.716729763330034912e+05
6.128099999999999881e+00 5.886825893779265461e+05
6.168400000000000105e+00 6.090685185372688575e+05
6.208700000000000330e+00 6.318908423962739762e+05
6.248999999999999666e+00 6.508811132952374173e+05
6.289399999999999658e+00 6.586120774745275266e+05
6.329699999999999882e+00 6.598888841872735647e+05
6.370000000000000107e+00 6.628192442502045305e+05
6.410300000000000331e+00 6.660909504249502206e+05
6.450599999999999667e+00 6.660554769522683928e+05
6.490899999999999892e+00 6.609116638998732669e+05
6.531299999999999883e+00 6.531058347430941649e+05
6.571600000000000108e+00 6.502151133985812776e+05
6.611900000000000333e+00 6.559954826562582748e+05
6.652199999999999669e+00 6.692602673054119805e+05
6.692499999999999893e+00 6.860263990933862515e+05
6.732800000000000118e+00 7.001287431753379060e+05
6.773200000000000109e+00 7.071481630279977107e+05
6.813500000000000334e+00 7.051204588590756757e+05
6.853799999999999670e+00 7.007813960884013213e+05
6.894099999999999895e+00 6.998348135110953590e+05
6.934400000000000119e+00 7.012367712070349371e+05
6.974700000000000344e+00 7.038333499006406637e+05
7.015100000000000335e+00 7.067613332614606479e+05
7.055399999999999672e+00 7.093228354701640783e+05
7.095699999999999896e+00 7.053452192379700718e+05
7.136000000000000121e+00 6.934072009292731527e+05
7.176300000000000345e+00 6.818355933002721285e+05
7.216599999999999682e+00 6.775657173329879297e+05
7.256999999999999673e+00 6.739047388079193188e+05
7.297299999999999898e+00 6.597639992097943323e+05
7.337600000000000122e+00 6.370304917673490709e+05
7.377900000000000347e+00 6.164470329219368286e+05
7.418199999999999683e+00 6.035170964819408255e+05
7.458499999999999908e+00 5.967900244670095854e+05
7.498800000000000132e+00 5.954847629997516051e+05
7.539200000000000124e+00 5.996376059464508435e+05
7.579500000000000348e+00 6.063271801073233364e+05
7.619799999999999685e+00 6.099094253007129300e+05
7.660099999999999909e+00 6.102773802270874148e+05
7.700400000000000134e+00 6.143587352588899666e+05
7.740700000000000358e+00 6.249506856271352153e+05
7.781100000000000350e+00 6.392647714510957012e+05
7.821399999999999686e+00 6.555490524521875195e+05
7.861699999999999910e+00 6.748993909068061039e+05
7.902000000000000135e+00 6.961282801202577539e+05
7.942300000000000360e+00 7.155163783428163733e+05
7.982599999999999696e+00 7.319965972888488322e+05
8.022999999999999687e+00 7.480203349629017757e+05
8.063299999999999912e+00 7.630363199496034067e+05
8.103600000000000136e+00 7.727063031064179959e+05
8.143900000000000361e+00 7.734292553898215992e+05
8.184200000000000585e+00 7.659282404180889716e+05
8.224500000000000810e+00 7.527522654400275787e+05
8.264900000000000801e+00 7.362689683808480622e+05
8.305199999999999250e+00 7.187897404554301174e+05
8.345499999999999474e+00 7.022265744952871464e+05
8.385799999999999699e+00 6.869189488396509551e+05
8.426099999999999923e+00 6.722512738796704216e+05
8.466400000000000148e+00 6.585705973357511684e+05
8.506800000000000139e+00 6.468002425098693930e+05
8.547100000000000364e+00 6.374710598374429392e+05
8.587400000000000588e+00 6.290437914952220162e+05
8.627700000000000813e+00 6.192573929103187984e+05
8.667999999999999261e+00 6.071407636756929569e+05
8.708299999999999486e+00 5.927744659739629133e+05
8.748699999999999477e+00 5.769446323085289914e+05
8.788999999999999702e+00 5.600412638238318032e+05
8.829299999999999926e+00 5.429245423252381152e+05
8.869600000000000151e+00 5.270727560839968501e+05
8.909900000000000375e+00 5.143338675669129589e+05
8.950200000000000600e+00 5.080004588023040560e+05
8.990600000000000591e+00 5.086979321704650065e+05
9.030900000000000816e+00 5.137601630530728726e+05
9.071199999999999264e+00 5.202812121286574402e+05
9.111499999999999488e+00 5.252368342249129200e+05
9.151799999999999713e+00 5.275730234080834780e+05
9.192099999999999937e+00 5.310456718157631112e+05
9.232499999999999929e+00 5.406956061999461381e+05
9.272800000000000153e+00 5.563863590526113985e+05
9.313100000000000378e+00 5.751773031777376309e+05
9.353400000000000603e+00 5.985374302435158752e+05
9.393700000000000827e+00 6.277559788608663948e+05
9.433999999999999275e+00 6.601683457438569749e+05
9.474399999999999267e+00 6.917344395243409090e+05
9.514699999999999491e+00 7.199120167749822140e+05
9.554999999999999716e+00 7.459050934732552851e+05
9.595299999999999940e+00 7.702857428093372146e+05
9.635600000000000165e+00 7.880568605283832876e+05
9.675900000000000389e+00 7.954395749949315796e+05
9.716300000000000381e+00 7.956656338871520711e+05
9.756600000000000605e+00 7.936428783163351472e+05
9.796900000000000830e+00 7.916427556062357035e+05
9.837199999999999278e+00 7.885651369340623496e+05
9.877499999999999503e+00 7.850873128540517064e+05
9.917799999999999727e+00 7.841104211432334268e+05
9.958099999999999952e+00 7.834021416277779499e+05
9.998499999999999943e+00 7.791865113443299197e+05
1.003880000000000017e+01 7.724426196915860055e+05
1.007910000000000039e+01 7.656955081879540812e+05
1.011940000000000062e+01 7.599267356674106559e+05
1.015970000000000084e+01 7.546429811387094669e+05
1.019999999999999929e+01 7.497327440512708854e+05
1.024039999999999928e+01 7.469351526412230451e+05
1.028069999999999951e+01 7.448528616555080516e+05
1.032099999999999973e+01 7.406862641057157889e+05
1.036129999999999995e+01 7.355373344671907835e+05
1.040160000000000018e+01 7.300297129262612434e+05
1.044190000000000040e+01 7.232850734396616463e+05
1.048230000000000040e+01 7.165934400357500417e+05
1.052260000000000062e+01 7.146438414989090525e+05
1.056290000000000084e+01 7.202603359865400707e+05
1.060319999999999929e+01 7.324136349659105763e+05
1.064349999999999952e+01 7.484679898494844092e+05
1.068379999999999974e+01 7.641043524988933932e+05
1.072419999999999973e+01 7.762353104843196925e+05
1.076449999999999996e+01 7.850894529150497401e+05
1.080480000000000018e+01 7.934117312746962998e+05
1.084510000000000041e+01 8.012984306939435191e+05
1.088540000000000063e+01 8.088411270028613508e+05
1.092570000000000086e+01 8.147555166928535327e+05
1.096610000000000085e+01 8.177802031411132775e+05
1.100639999999999930e+01 8.191246413824347546e+05
1.104669999999999952e+01 8.179574530653844122e+05
1.108699999999999974e+01 8.157817884087442653e+05
1.112729999999999997e+01 8.155554774271796923e+05
1.116760000000000019e+01 8.165063615242548985e+05
1.120800000000000018e+01 8.187382183517556405e+05
1.124830000000000041e+01 8.238170792096722871e+05
1.128860000000000063e+01 8.337578134240758372e+05
1.132890000000000086e+01 8.463765256393887103e+05
1.136919999999999931e+01 8.562064690328608267e+05
1.140949999999999953e+01 8.588930669225744205e+05
1.144989999999999952e+01 8.515079216819911962e+05
1.149019999999999975e+01 8.348975196073569823e+05
1.153049999999999997e+01 8.121674500995790586e+05
1.157080000000000020e+01 7.885792635286415461e+05
1.161110000000000042e+01 7.697162845413696487e+05
1.165140000000000065e+01 7.559989960576446028e+05
1.169180000000000064e+01 7.462273790372471558e+05
1.173210000000000086e+01 7.400930890487160068e+05
1.177239999999999931e+01 7.372939570583838504e+05
1.181269999999999953e+01 7.348115031994312303e+05
1.185299999999999976e+01 7.297775375549726887e+05
1.189329999999999998e+01 7.215616262530974345e+05
1.193369999999999997e+01 7.080288850399811054e+05
1.197400000000000020e+01 6.910569483042918146e+05
1.201430000000000042e+01 6.763834335809081094e+05
1.205460000000000065e+01 6.671114761295386124e+05
1.209490000000000087e+01 6.635648493337872205e+05
1.213519999999999932e+01 6.659592290472773602e+05
1.217559999999999931e+01 6.741984492520951899e+05
1.221589999999999954e+01 6.855408432303940644e+05
1.225619999999999976e+01 6.968273483153695706e+05
1.229649999999999999e+01 7.077013901438375469e+05
1.233680000000000021e+01 7.198017362689457368e+05
1.237710000000000043e+01 7.338342690150396666e+05
1.241740000000000066e+01 7.503784184457769152e+05
1.245780000000000065e+01 7.703917468334949808e+05
1.249810000000000088e+01 7.923519935947769554e+05
1.253839999999999932e+01 8.128775436206051381e+05
1.257869999999999955e+01 8.303737505215017591e+05
1.261899999999999977e+01 8.448504226647134637e+05
1.265930000000000000e+01 8.579066618845709600e+05
1.269969999999999999e+01 8.720302971788032446e+05
1.274000000000000021e+01 8.894192420876641991e+05
1.278030000000000044e+01 9.075317332937694155e+05
1.282060000000000066e+01 9.214829620567627717e+05
1.286090000000000089e+01 9.329074089015614009e+05
1.290119999999999933e+01 9.461592135588682722e+05
1.294159999999999933e+01 9.607646656109101605e+05
1.298189999999999955e+01 9.741011002599417698e+05
1.302219999999999978e+01 9.841688593400084646e+05
1.306250000000000000e+01 9.902763514656157931e+05
1.310280000000000022e+01 9.937703587241367204e+05
1.314310000000000045e+01 9.948797827981876908e+05
1.318350000000000044e+01 9.909853693350084359e+05
1.322380000000000067e+01 9.791059803723744117e+05
1.326409999999999911e+01 9.587376212866564747e+05
1.330439999999999934e+01 9.325878442387586692e+05
1.334469999999999956e+01 9.067802461243657162e+05
1.338499999999999979e+01 8.871653346290497575e+05
1.342539999999999978e+01 8.739463671160080703e+05
1.346570000000000000e+01 8.614962916402099654e+05
1.350600000000000023e+01 8.449665121068558656e+05
1.354630000000000045e+01 8.224387789969270816e+05
1.358660000000000068e+01 7.967059326468257932e+05
1.362689999999999912e+01 7.710352712266235612e+05
1.366729999999999912e+01 7.459690127447895939e+05
1.370759999999999934e+01 7.247076947632330703e+05
1.374789999999999957e+01 7.115180871587644797e+05
1.378819999999999979e+01 7.037582584910960868e+05
1.382850000000000001e+01 6.953647717146563809e+05
1.386880000000000024e+01 6.837899482634747401e+05
1.390920000000000023e+01 6.687485227011784445e+05
1.394950000000000045e+01 6.512408403233217541e+05
1.398980000000000068e+01 6.352747712870138930e+05
1.403009999999999913e+01 6.233411083429639693e+05
1.407039999999999935e+01 6.145138841586257331e+05
1.411069999999999958e+01 6.078927309955692617e+05
1.415109999999999957e+01 6.014608287081558956e+05
1.419139999999999979e+01 5.936414148755948991e+05
1.423170000000000002e+01 5.866346116177997319e+05
1.427200000000000024e+01 5.828424956383438548e+05
1.431230000000000047e+01 5.806048439272185788e+05
1.435260000000000069e+01 5.775637416335572489e+05
1.439300000000000068e+01 5.735809407740188763e+05
1.443329999999999913e+01 5.677685954023165395e+05
1.447359999999999935e+01 5.581740035913002212e+05
1.451389999999999958e+01 5.451860447557064472e+05
1.455419999999999980e+01 5.322463869678605115e+05
1.459450000000000003e+01 5.215820247298487811e+05
1.463490000000000002e+01 5.130223680347896880e+05
1.467520000000000024e+01 5.070567413507438032e+05
1.471550000000000047e+01 5.046548098799887230e+05
1.475580000000000069e+01 5.061698239372118260e+05
1.479609999999999914e+01 5.106075449329991243e+05
1.483639999999999937e+01 5.174166579302240280e+05
1.487669999999999959e+01 5.273379040810512379e+05
1.491709999999999958e+01 5.378173444141546497e+05
1.495739999999999981e+01 5.450007663757537957e+05
1.499770000000000003e+01 5.487309658446476096e+05
1.503800000000000026e+01 5.522995775634029415e+05
1.507830000000000048e+01 5.593300602255227277e+05
1.511860000000000070e+01 5.696634520167120500e+05
1.515900000000000070e+01 5.817974934957310325e+05
1.519929999999999914e+01 5.950600254729615990e+05
1.523959999999999937e+01 6.063815546462414786e+05
1.527989999999999959e+01 6.128338266451469390e+05
1.532019999999999982e+01 6.135431059489788022e+05
1.536050000000000004e+01 6.100211968838333851e+05
1.540090000000000003e+01 6.060430954522935208e+05
1.544120000000000026e+01 6.064494778805023525e+05
1.548150000000000048e+01 6.129760597585083451e+05
1.552180000000000071e+01 6.231001873166436562e+05
1.556209999999999916e+01 6.330349555815699277e+05
1.560239999999999938e+01 6.390571186315948144e+05
1.564279999999999937e+01 6.401864546909752535e+05
1.568309999999999960e+01 6.396129630775246769e+05
1.572339999999999982e+01 6.414843095013161656e+05
1.576370000000000005e+01 6.468843939638896845e+05
1.580400000000000027e+01 6.537653349911668338e+05
1.584430000000000049e+01 6.634873994321182836e+05
1.588470000000000049e+01 6.801760022778998828e+05
1.592500000000000071e+01 7.071342252250912134e+05
1.596529999999999916e+01 7.430636236017877236e+05
1.600560000000000116e+01 7.828853139007491991e+05
1.604589999999999961e+01 8.193385150188953849e+05
