# energy(eV) alpha
0.000000000000000000e+00 0.000000000000000000e+00
4.070000000000000007e-02 6.636388702225838321e-01
8.140000000000000013e-02 2.654402789708402377e+00
1.221000000000000002e-01 5.971891044168195606e+00
1.628999999999999893e-01 1.032693943670800074e+01
2.036000000000000032e-01 1.603913250723474704e+01
2.442999999999999894e-01 2.322284918835715928e+01
2.849999999999999756e-01 3.172905035961614573e+01
3.256999999999999895e-01 4.155581103310436220e+01
3.664000000000000035e-01 5.270098321628907456e+01
4.071000000000000174e-01 6.553058122929790841e+01
4.479000000000000203e-01 7.936051746133155405e+01
4.885999999999999788e-01 9.536751680446033674e+01
5.292999999999999927e-01 1.118723006175162027e+02
5.699999999999999512e-01 1.301953186737776775e+02
6.107000000000000206e-01 1.504413877523782617e+02
6.513999999999999790e-01 1.715426008757018224e+02
6.922000000000000375e-01 1.946587344510037099e+02
7.328999999999999959e-01 2.185207243532075836e+02
7.735999999999999543e-01 2.451292434759533307e+02
8.143000000000000238e-01 2.732279921319764071e+02
8.549999999999999822e-01 3.028127853303635106e+02
8.957000000000000517e-01 3.338754897899683556e+02
9.364000000000000101e-01 3.680895627125007650e+02
9.771999999999999575e-01 4.030785635421078723e+02
1.017900000000000027e+00 4.413747971957552636e+02
1.058599999999999985e+00 4.784883733506947010e+02
1.099299999999999944e+00 5.199883151188334978e+02
1.139999999999999902e+00 5.641446172462198092e+02
1.180700000000000083e+00 6.110492617074664849e+02
1.221400000000000041e+00 6.586211041530816601e+02
1.262199999999999989e+00 7.101731805556268000e+02
1.302899999999999947e+00 7.634652297130905936e+02
1.343599999999999905e+00 8.185399600483283393e+02
1.384300000000000086e+00 8.790578094631604245e+02
1.425000000000000044e+00 9.415424202566892973e+02
1.465700000000000003e+00 1.005951005445807709e+03
1.506399999999999961e+00 1.076268530304869955e+03
1.547199999999999909e+00 1.146034143362604254e+03
1.587900000000000089e+00 1.224648709629607310e+03
1.628600000000000048e+00 1.302654537380288275e+03
1.669300000000000006e+00 1.385680395562088506e+03
1.709999999999999964e+00 1.475371566668399055e+03
1.750699999999999923e+00 1.568966504826705432e+03
1.791500000000000092e+00 1.668154918674558303e+03
1.832200000000000051e+00 1.769745743263727036e+03
1.872900000000000009e+00 1.880257518543116021e+03
1.913599999999999968e+00 1.996755485992207923e+03
1.954299999999999926e+00 2.117662687041694426e+03
1.995000000000000107e+00 2.246452756384066106e+03
2.035699999999999843e+00 2.383385134195012142e+03
2.076499999999999790e+00 2.528732760388099905e+03
2.117199999999999971e+00 2.682512194520448702e+03
2.157900000000000151e+00 2.845013893936838031e+03
2.198599999999999888e+00 3.018284443654954430e+03
2.239300000000000068e+00 3.206392782642882594e+03
2.279999999999999805e+00 3.403934015288254614e+03
2.320699999999999985e+00 3.613027879307920102e+03
2.361499999999999932e+00 3.841950029818392977e+03
2.402200000000000113e+00 4.084891107697876578e+03
2.442899999999999849e+00 4.350373911574350132e+03
2.483600000000000030e+00 4.636859961666733398e+03
2.524300000000000210e+00 4.946824500473245280e+03
2.564999999999999947e+00 5.287045836551420507e+03
2.605799999999999894e+00 5.656179597438554083e+03
2.646500000000000075e+00 6.067209087486876342e+03
2.687199999999999811e+00 6.521135395503213658e+03
2.727899999999999991e+00 7.025257265673868460e+03
2.768600000000000172e+00 7.593594628504249158e+03
2.809299999999999908e+00 8.245074296247415987e+03
2.850000000000000089e+00 8.994389943487542041e+03
2.890800000000000036e+00 9.872771164654785025e+03
2.931500000000000217e+00 1.093392959254036941e+04
2.972199999999999953e+00 1.224287828528858699e+04
3.012900000000000134e+00 1.392829906319064685e+04
3.053599999999999870e+00 1.618591218309956093e+04
3.094300000000000050e+00 1.927355670379941148e+04
3.134999999999999787e+00 2.322896858269808581e+04
3.175800000000000178e+00 2.729431573712249883e+04
3.216499999999999915e+00 3.071131330300950867e+04
3.257200000000000095e+00 3.418078343585451512e+04
3.297899999999999832e+00 3.793868281895727705e+04
3.338600000000000012e+00 4.180482111797534162e+04
3.379300000000000193e+00 4.623515706150452024e+04
3.419999999999999929e+00 5.323679990776549676e+04
3.460799999999999876e+00 6.451366425214083574e+04
3.501500000000000057e+00 8.043973362645885209e+04
3.542199999999999793e+00 1.015496954489875206e+05
3.582899999999999974e+00 1.278540865887070540e+05
3.623600000000000154e+00 1.520013220967164089e+05
3.664299999999999891e+00 1.659297168563322048e+05
3.705099999999999838e+00 1.764828659268199117e+05
3.745800000000000018e+00 1.920396747809349035e+05
3.786500000000000199e+00 2.075809501318852708e+05
3.827199999999999935e+00 2.113058173333938466e+05
3.867900000000000116e+00 2.055921832384006993e+05
3.908599999999999852e+00 1.995718071774946002e+05
3.949300000000000033e+00 1.953072664891942986e+05
3.990099999999999980e+00 1.912942949522265117e+05
4.030800000000000161e+00 1.832490300488517969e+05
4.071500000000000341e+00 1.761619896855315892e+05
4.112199999999999633e+00 1.777636227858541533e+05
4.152899999999999814e+00 1.898152505377839552e+05
4.193599999999999994e+00 2.094151634805501380e+05
4.234300000000000175e+00 2.345495263657521282e+05
4.275100000000000122e+00 2.648017867573987460e+05
4.315800000000000303e+00 2.996325670291885617e+05
4.356499999999999595e+00 3.340602240665535210e+05
4.397199999999999775e+00 3.591315450576565345e+05
4.437899999999999956e+00 3.730491278685735888e+05
4.478600000000000136e+00 3.802499364385056542e+05
4.519300000000000317e+00 3.858509414522824227e+05
4.560100000000000264e+00 3.900423777986141504e+05
4.600799999999999557e+00 3.899844422882735380e+05
4.641499999999999737e+00 3.857452400782229961e+05
4.682199999999999918e+00 3.810542072340007289e+05
4.722900000000000098e+00 3.778761810221619089e+05
4.763600000000000279e+00 3.807256535452235257e+05
4.804400000000000226e+00 3.947064133197869523e+05
4.845100000000000406e+00 4.128533084323762450e+05
4.885799999999999699e+00 4.231456997085238690e+05
4.926499999999999879e+00 4.240544031397071085e+05
4.967200000000000060e+00 4.204117404143344029e+05
5.007900000000000240e+00 4.157090834266409511e+05
5.048600000000000421e+00 4.142641842143581598e+05
5.089400000000000368e+00 4.223878862105486915e+05
5.130099999999999660e+00 4.417446107428768883e+05
5.170799999999999841e+00 4.629449831224296358e+05
5.211500000000000021e+00 4.786444804005257320e+05
5.252200000000000202e+00 4.968209876250156667e+05
5.292900000000000382e+00 5.248916202832974959e+05
5.333599999999999675e+00 5.604060204635774717e+05
5.374399999999999622e+00 5.978620270867089275e+05
5.415099999999999802e+00 6.308790721481938381e+05
5.455799999999999983e+00 6.559595080076254671e+05
5.496500000000000163e+00 6.759884521513200598e+05
5.537200000000000344e+00 6.920538185767431278e+05
5.577899999999999636e+00 7.026986831029000459e+05
5.618699999999999584e+00 7.071219121470620157e+05
5.659399999999999764e+00 7.036437961118058302e+05
5.700099999999999945e+00 6.921974449894775171e+05
5.740800000000000125e+00 6.769170543608717853e+05
5.781500000000000306e+00 6.629574737156660995e+05
5.822199999999999598e+00 6.493647189648873173e+05
5.862899999999999778e+00 6.345346028046896681e+05
5.903699999999999726e+00 6.157122912862196099e+05
5.944399999999999906e+00 5.945165460241625551e+05
5.985100000000000087e+00 5.791623193281935528e+05
6.025800000000000267e+00 5.736057870386143913e+05
6.066499999999999559e+00 5.766408275628994452e+05
6.107199999999999740e+00 5.890755550416543847e+05
6.147899999999999920e+00 6.073843501000012038e+05
6.188699999999999868e+00 6.240168260128328111e+05
6.229400000000000048e+00 6.342959802466292167e+05
6.270100000000000229e+00 6.426990454107574187e+05
6.310800000000000409e+00 6.588209589094386902e+05
6.351499999999999702e+00 6.822575435732221231e+05
6.392199999999999882e+00 7.005322490690596169e+05
6.432900000000000063e+00 7.040182567922197049e+05
6.473700000000000010e+00 6.934803327210528078e+05
6.514400000000000190e+00 6.822049516722236294e+05
6.555100000000000371e+00 6.788379921882493654e+05
6.595799999999999663e+00 6.805912293241956504e+05
6.636499999999999844e+00 6.847754999448839808e+05
6.677200000000000024e+00 6.920282682618581457e+05
6.717999999999999972e+00 7.054294330203256104e+05
6.758700000000000152e+00 7.273881216868970077e+05
6.799400000000000333e+00 7.521638474397079553e+05
6.840099999999999625e+00 7.718917962817852385e+05
6.880799999999999805e+00 7.900783142965454608e+05
6.921499999999999986e+00 8.055105186751784058e+05
6.962200000000000166e+00 8.073269521352037555e+05
7.003000000000000114e+00 7.973282635402086889e+05
7.043700000000000294e+00 7.840596478155817604e+05
7.084399999999999586e+00 7.656729849932511570e+05
7.125099999999999767e+00 7.435163298118555686e+05
7.165799999999999947e+00 7.228999521990928333e+05
7.206500000000000128e+00 7.036664699824517593e+05
7.247200000000000308e+00 6.869926350834042532e+05
7.288000000000000256e+00 6.747704598421577830e+05
7.328700000000000436e+00 6.666879991221134551e+05
7.369399999999999729e+00 6.597820163477062015e+05
7.410099999999999909e+00 6.505673930646391818e+05
7.450800000000000090e+00 6.384738086239893455e+05
7.491500000000000270e+00 6.245244631315635052e+05
7.532199999999999562e+00 6.110959427993376739e+05
7.573000000000000398e+00 5.954554728814020054e+05
7.613699999999999690e+00 5.770058410403031157e+05
7.654399999999999871e+00 5.564415976030960446e+05
7.695100000000000051e+00 5.364149062036337564e+05
7.735800000000000232e+00 5.248955025311949430e+05
7.776500000000000412e+00 5.261830275878693210e+05
7.817300000000000360e+00 5.376062601990477415e+05
7.857999999999999652e+00 5.519680984970807331e+05
7.898699999999999832e+00 5.646661478454055032e+05
7.939400000000000013e+00 5.758414087566551752e+05
7.980100000000000193e+00 5.893601283620904433e+05
8.020799999999999486e+00 6.098931201843922026e+05
8.061500000000000554e+00 6.404683407617739867e+05
8.102299999999999613e+00 6.782059274252585601e+05
8.143000000000000682e+00 7.137334472037017113e+05
8.183699999999999974e+00 7.379475299702464836e+05
8.224399999999999267e+00 7.446279840642110212e+05
8.265100000000000335e+00 7.315022078445786610e+05
8.305799999999999628e+00 7.034295044708201895e+05
8.346500000000000696e+00 6.718269178618188016e+05
8.387299999999999756e+00 6.477606066076249117e+05
8.428000000000000824e+00 6.310648650346114300e+05
8.468700000000000117e+00 6.179783854442955926e+05
8.509399999999999409e+00 6.085318513221092289e+05
8.550100000000000477e+00 6.012254649487275165e+05
8.590799999999999770e+00 5.991178310406807577e+05
8.631600000000000605e+00 6.028139890842261957e+05
8.672299999999999898e+00 6.062376010317581240e+05
8.712999999999999190e+00 6.055822464846209623e+05
8.753700000000000259e+00 5.999717722639912972e+05
8.794399999999999551e+00 5.894197296617771499e+05
8.835100000000000620e+00 5.763019754623451736e+05
8.875799999999999912e+00 5.632329922373675508e+05
8.916600000000000747e+00 5.513772603162262822e+05
8.957300000000000040e+00 5.417681448828001739e+05
8.997999999999999332e+00 5.335628118421004619e+05
9.038700000000000401e+00 5.231284297157554538e+05
9.079399999999999693e+00 5.114812644220787333e+05
9.120100000000000762e+00 5.034576043851832510e+05
9.160800000000000054e+00 5.010107743562852265e+05
9.201599999999999113e+00 5.026931260483404039e+05
9.242300000000000182e+00 5.061804294953080826e+05
9.282999999999999474e+00 5.105326245341340546e+05
9.323700000000000543e+00 5.177918345329756266e+05
9.364399999999999835e+00 5.303905440300654154e+05
9.405099999999999127e+00 5.498379124331714120e+05
9.445800000000000196e+00 5.740207298616273329e+05
9.486599999999999255e+00 6.032509741393710719e+05
9.527300000000000324e+00 6.408904900682914304e+05
9.567999999999999616e+00 6.874238931397052947e+05
9.608700000000000685e+00 7.365588592255577678e+05
9.649399999999999977e+00 7.799885031418246217e+05
9.690099999999999270e+00 8.104120581503348658e+05
9.730900000000000105e+00 8.260448191288179951e+05
9.771599999999999397e+00 8.362077958421676885e+05
9.812300000000000466e+00 8.472532852610725677e+05
9.852999999999999758e+00 8.553731954348976724e+05
9.893700000000000827e+00 8.599585902920030057e+05
9.934400000000000119e+00 8.631812402213446330e+05
9.975099999999999412e+00 8.610596298954846570e+05
1.001590000000000025e+01 8.520345391838430660e+05
1.005659999999999954e+01 8.397938163072308525e+05
1.009730000000000061e+01 8.292861753186184214e+05
1.013799999999999990e+01 8.268388985926242312e+05
1.017869999999999919e+01 8.312594413060465595e+05
1.021940000000000026e+01 8.373725506688035093e+05
1.026009999999999955e+01 8.422900576340949629e+05
1.030090000000000039e+01 8.424108334408766823e+05
1.034159999999999968e+01 8.376872358105591265e+05
1.038230000000000075e+01 8.304919581210714532e+05
1.042300000000000004e+01 8.178272915455762995e+05
1.046369999999999933e+01 7.997868498226162046e+05
1.050440000000000040e+01 7.827046072622707579e+05
1.054509999999999970e+01 7.729990630559565034e+05
1.058590000000000053e+01 7.699408545755970990e+05
1.062659999999999982e+01 7.704485471821624087e+05
1.066729999999999912e+01 7.761256116763567552e+05
1.070800000000000018e+01 7.879221097928324016e+05
1.074869999999999948e+01 8.003685775477399584e+05
1.078940000000000055e+01 8.067964428803140763e+05
1.083019999999999960e+01 8.096469214541242691e+05
1.087090000000000067e+01 8.161227255156537285e+05
1.091159999999999997e+01 8.307341659169006161e+05
1.095229999999999926e+01 8.547207131686409703e+05
1.099300000000000033e+01 8.808260354633604875e+05
1.103369999999999962e+01 8.954558062691326486e+05
1.107440000000000069e+01 8.958779542905513663e+05
1.111519999999999975e+01 8.929831958793172380e+05
1.115590000000000082e+01 8.931990627245998476e+05
1.119660000000000011e+01 8.965899709892472019e+05
1.123729999999999940e+01 9.024417588624140481e+05
1.127800000000000047e+01 9.034521397171267308e+05
1.131869999999999976e+01 8.968459536925175926e+05
1.135940000000000083e+01 8.894727457060449524e+05
1.140019999999999989e+01 8.873843445846204413e+05
1.144089999999999918e+01 8.906774119612385985e+05
1.148160000000000025e+01 8.961175865415106528e+05
1.152229999999999954e+01 8.991037229906346183e+05
1.156300000000000061e+01 9.006103659219676629e+05
1.160369999999999990e+01 9.006527647006713087e+05
1.164450000000000074e+01 8.984309022798020160e+05
1.168520000000000003e+01 8.934407829641413409e+05
1.172589999999999932e+01 8.845205875870136078e+05
1.176660000000000039e+01 8.724083312790812925e+05
1.180729999999999968e+01 8.606966497610148508e+05
1.184800000000000075e+01 8.517621013483394636e+05
1.188870000000000005e+01 8.404222011056457413e+05
1.192950000000000088e+01 8.233111477793966187e+05
1.197020000000000017e+01 8.008342025005443720e+05
1.201089999999999947e+01 7.773964444751264527e+05
1.205160000000000053e+01 7.581796187814036384e+05
1.209229999999999983e+01 7.451188522152885562e+05
1.213299999999999912e+01 7.345699706204857212e+05
1.217370000000000019e+01 7.194700497592417523e+05
1.221449999999999925e+01 7.011410564293499338e+05
1.225520000000000032e+01 6.848519577846298926e+05
1.229589999999999961e+01 6.728213726282422431e+05
1.233660000000000068e+01 6.673042181488169590e+05
1.237729999999999997e+01 6.698956670367571060e+05
1.241799999999999926e+01 6.765165732856299728e+05
1.245870000000000033e+01 6.835699582052719779e+05
1.249949999999999939e+01 6.932561897823548643e+05
1.254020000000000046e+01 7.120443071230979403e+05
1.258089999999999975e+01 7.424779617521914188e+05
1.262160000000000082e+01 7.838851552765803644e+05
1.266230000000000011e+01 8.323255776223520515e+05
1.270299999999999940e+01 8.856551607011310989e+05
1.274380000000000024e+01 9.398037225784310140e+05
1.278449999999999953e+01 9.844885678300918080e+05
1.282520000000000060e+01 1.011265381391066592e+06
1.286589999999999989e+01 1.022764763118809322e+06
1.290659999999999918e+01 1.027951866912778001e+06
1.294730000000000025e+01 1.033573213866953505e+06
1.298799999999999955e+01 1.041357848530434305e+06
1.302880000000000038e+01 1.049236702795410063e+06
1.306949999999999967e+01 1.052830950550297275e+06
1.311020000000000074e+01 1.051735362173623173e+06
1.315090000000000003e+01 1.050012486163382651e+06
1.319159999999999933e+01 1.048505459062718903e+06
1.323230000000000040e+01 1.044886023746046703e+06
1.327299999999999969e+01 1.036840503151405719e+06
1.331380000000000052e+01 1.020073829861584585e+06
1.335449999999999982e+01 9.958283474956398131e+05
1.339520000000000088e+01 9.724068955605635419e+05
1.343590000000000018e+01 9.536061677493597381e+05
1.347659999999999947e+01 9.332041515455632471e+05
1.351730000000000054e+01 9.105559304664205993e+05
1.355799999999999983e+01 8.919501059455140494e+05
1.359880000000000067e+01 8.761643056610437343e+05
1.363949999999999996e+01 8.571524960129454266e+05
1.368019999999999925e+01 8.347708199503205251e+05
1.372090000000000032e+01 8.143936681817380013e+05
1.376159999999999961e+01 8.010560119637099560e+05
1.380230000000000068e+01 7.890604460653770948e+05
1.384309999999999974e+01 7.705958617247759830e+05
1.388380000000000081e+01 7.471873633637167513e+05
1.392450000000000010e+01 7.270685092233460164e+05
1.396519999999999939e+01 7.101374850874739932e+05
1.400590000000000046e+01 6.916755037686310243e+05
1.404659999999999975e+01 6.717570851038165856e+05
1.408730000000000082e+01 6.544987702625753591e+05
1.412809999999999988e+01 6.410495558301411802e+05
1.416879999999999917e+01 6.297050581569072092e+05
1.420950000000000024e+01 6.186460049234523904e+05
1.425019999999999953e+01 6.085114302284561563e+05
1.429090000000000060e+01 6.026284513467857614e+05
1.433159999999999989e+01 5.996962311370701063e+05
1.437229999999999919e+01 5.987135698533582035e+05
1.441310000000000002e+01 6.006108461936445674e+05
1.445379999999999932e+01 6.054599168309709057e+05
1.449450000000000038e+01 6.116259000998055562e+05
1.453519999999999968e+01 6.129995014203578467e+05
1.457590000000000074e+01 6.067707517014683690e+05
1.461660000000000004e+01 6.004100692174576689e+05
1.465729999999999933e+01 6.006844551836901810e+05
1.469810000000000016e+01 6.049703693700289587e+05
1.473879999999999946e+01 6.069868271259617759e+05
1.477950000000000053e+01 6.015907941020206781e+05
1.482019999999999982e+01 5.913134840414159698e+05
1.486090000000000089e+01 5.826966980515718460e+05
1.490160000000000018e+01 5.801582560685141943e+05
1.494239999999999924e+01 5.850308881673326250e+05
1.498310000000000031e+01 5.923850726627213880e+05
1.502379999999999960e+01 5.944120086205214029e+05
1.506450000000000067e+01 5.915631980565311387e+05
1.510519999999999996e+01 5.890112543060301105e+05
1.514589999999999925e+01 5.905224080352176679e+05
1.518660000000000032e+01 5.984457985354363918e+05
1.522739999999999938e+01 6.083694155389646767e+05
1.526810000000000045e+01 6.120259429803141393e+05
1.530879999999999974e+01 6.125497268500989303e+05
1.534950000000000081e+01 6.203636668710043887e+05
1.539020000000000010e+01 6.343582860469678417e+05
1.543089999999999939e+01 6.421388941679511918e+05
1.547160000000000046e+01 6.375760955426999135e+05
1.551239999999999952e+01 6.273781680105102714e+05
1.555310000000000059e+01 6.194681683972434839e+05
1.559379999999999988e+01 6.170693408102609683e+05
1.563449999999999918e+01 6.217827657239268301e+05
1.567520000000000024e+01 6.330350351235264679e+05
1.571589999999999954e+01 6.478283554026915226e+05
1.575670000000000037e+01 6.593030837442750344e+05
1.579739999999999966e+01 6.626393024573735893e+05
1.583810000000000073e+01 6.631606328859806526e+05
1.587880000000000003e+01 6.626596722232128959e+05
1.591949999999999932e+01 6.594920016030150000e+05
1.596020000000000039e+01 6.567901068263107445e+05
1.600090000000000146e+01 6.571946983314333484e+05
1.604169999999999874e+01 6.610307655192952370e+05
1.608239999999999981e+01 6.653208169573312625e+05
1.612310000000000088e+01 6.699993901624224382e+05
1.616379999999999839e+01 6.821221638092761859e+05
1.620449999999999946e+01 7.057384883679371560e+05
