# energy(eV) alpha
0.000000000000000000e+00 0.000000000000000000e+00
4.320000000000000229e-02 1.616814480503464990e+00
8.640000000000000457e-02 6.613430273069120346e+00
1.295999999999999930e-01 1.465685913178311672e+01
1.728000000000000091e-01 2.629408949001016893e+01
2.159999999999999976e-01 4.129886815009288625e+01
2.590999999999999970e-01 5.986075700409094935e+01
3.023000000000000131e-01 8.186576427549698565e+01
3.454999999999999738e-01 1.078699978819534948e+02
3.886999999999999900e-01 1.374190380892478061e+02
4.319000000000000061e-01 1.712296847587200546e+02
4.751000000000000223e-01 2.090984420842279690e+02
5.182999999999999829e-01 2.515535914554657779e+02
5.614999999999999991e-01 2.992589094161552907e+02
6.047000000000000153e-01 3.525107531483317302e+02
6.479000000000000314e-01 4.105107345855369658e+02
6.911000000000000476e-01 4.739064704450019576e+02
7.341999999999999638e-01 5.446460442740778944e+02
7.773999999999999799e-01 6.220556791846298665e+02
8.205999999999999961e-01 7.070100813341848607e+02
8.638000000000000123e-01 8.005928242397017129e+02
9.070000000000000284e-01 9.032426410199609563e+02
9.502000000000000446e-01 1.016985637859780695e+03
9.933999999999999497e-01 1.142438091015565760e+03
1.036599999999999966e+00 1.281046257340607326e+03
1.079800000000000093e+00 1.435271043722153991e+03
1.122999999999999998e+00 1.606874477546843309e+03
1.166099999999999914e+00 1.798508330938370591e+03
1.209300000000000042e+00 2.012496731866094933e+03
1.252499999999999947e+00 2.254847191798830863e+03
1.295700000000000074e+00 2.529127032224106642e+03
1.338899999999999979e+00 2.844431853576683807e+03
1.382100000000000106e+00 3.207219807600285094e+03
1.425300000000000011e+00 3.629932094229080576e+03
1.468499999999999917e+00 4.126894039579136916e+03
1.511700000000000044e+00 4.721572634373856999e+03
1.554899999999999949e+00 5.446047174214384540e+03
1.598100000000000076e+00 6.340045429455416524e+03
1.641199999999999992e+00 7.476239668470157994e+03
1.684399999999999897e+00 8.964984843952590381e+03
1.727600000000000025e+00 1.098214098619887227e+04
1.770799999999999930e+00 1.384102958714274791e+04
1.814000000000000057e+00 1.809309738970839317e+04
1.857199999999999962e+00 2.466113562081242708e+04
1.900400000000000089e+00 3.458913891948428500e+04
1.943599999999999994e+00 4.736505825322253804e+04
1.986799999999999899e+00 6.020941390241566114e+04
2.029999999999999805e+00 6.901353331261177664e+04
2.073199999999999932e+00 6.820613125767954625e+04
2.116299999999999848e+00 6.137590036833409977e+04
2.159499999999999975e+00 5.763156518042948301e+04
2.202700000000000102e+00 5.995137810670259205e+04
2.245899999999999785e+00 6.633854693347014836e+04
2.289099999999999913e+00 7.639946071343177755e+04
2.332300000000000040e+00 9.363866231905842142e+04
2.375500000000000167e+00 1.235743052556969051e+05
2.418699999999999850e+00 1.649423103494977404e+05
2.461899999999999977e+00 1.976465125704659149e+05
2.505100000000000104e+00 1.955514713961480011e+05
2.548299999999999788e+00 1.665431379554867453e+05
2.591400000000000148e+00 1.375099559705306892e+05
2.634599999999999831e+00 1.218860180345095432e+05
2.677799999999999958e+00 1.164502505836903729e+05
2.721000000000000085e+00 1.111758064705915313e+05
2.764200000000000212e+00 1.071363453868724901e+05
2.807399999999999896e+00 1.083020400837999041e+05
2.850600000000000023e+00 1.137220546522934019e+05
2.893800000000000150e+00 1.200921642818412947e+05
2.936999999999999833e+00 1.276605884054179041e+05
2.980199999999999960e+00 1.375607569825211831e+05
3.023299999999999876e+00 1.475556199773754633e+05
3.066500000000000004e+00 1.497255354491103499e+05
3.109700000000000131e+00 1.476883828788003884e+05
3.152899999999999814e+00 1.497529283471294912e+05
3.196099999999999941e+00 1.537338463870350679e+05
3.239300000000000068e+00 1.529470783708548988e+05
3.282500000000000195e+00 1.523883130526556051e+05
3.325699999999999878e+00 1.613120167250177183e+05
3.368900000000000006e+00 1.782246426957388758e+05
3.412100000000000133e+00 1.929794401157003886e+05
3.455299999999999816e+00 2.013241221272851690e+05
3.498400000000000176e+00 2.000320425572980021e+05
3.541599999999999859e+00 1.878711181830098794e+05
3.584799999999999986e+00 1.672643318855723774e+05
3.628000000000000114e+00 1.472848363282738137e+05
3.671199999999999797e+00 1.354161071771986608e+05
3.714399999999999924e+00 1.341689457040395937e+05
3.757600000000000051e+00 1.397324762457133620e+05
3.800800000000000178e+00 1.444352313345053408e+05
3.843999999999999861e+00 1.455678802506550273e+05
3.887199999999999989e+00 1.442091047074350645e+05
3.930400000000000116e+00 1.403425993190906884e+05
3.973500000000000032e+00 1.373615439499311906e+05
4.016700000000000159e+00 1.373796715573063120e+05
4.059899999999999842e+00 1.421282372783022875e+05
4.103100000000000414e+00 1.518915323042826785e+05
4.146300000000000097e+00 1.647333968698068347e+05
4.189499999999999780e+00 1.741825288153760484e+05
4.232700000000000351e+00 1.762901433351179294e+05
4.275900000000000034e+00 1.763866732957839558e+05
4.319099999999999717e+00 1.817245222542728879e+05
4.362300000000000288e+00 1.946950967421914102e+05
4.405499999999999972e+00 2.152334441367694235e+05
4.448599999999999888e+00 2.397575478593793814e+05
4.491799999999999571e+00 2.632794794725644751e+05
4.535000000000000142e+00 2.870709692102845293e+05
4.578199999999999825e+00 3.097494215324502438e+05
4.621400000000000396e+00 3.229614845544251148e+05
4.664600000000000080e+00 3.290568005036540562e+05
4.707799999999999763e+00 3.338652928470741026e+05
4.751000000000000334e+00 3.385278556466319133e+05
4.794200000000000017e+00 3.424208588456318830e+05
4.837399999999999700e+00 3.440362209861895535e+05
4.880499999999999616e+00 3.485728474058831343e+05
4.923700000000000188e+00 3.599773577485916903e+05
4.966899999999999871e+00 3.762686584010971128e+05
5.010100000000000442e+00 3.890895805278937332e+05
5.053300000000000125e+00 3.939370478109453688e+05
5.096499999999999808e+00 3.950202889360018307e+05
5.139700000000000379e+00 3.992658353009518469e+05
5.182900000000000063e+00 4.050998967947417987e+05
5.226099999999999746e+00 4.007805616898625740e+05
5.269300000000000317e+00 3.897101023144830251e+05
5.312500000000000000e+00 3.837217044389346265e+05
5.355599999999999916e+00 3.828858056745973881e+05
5.398799999999999599e+00 3.861969471402785275e+05
5.442000000000000171e+00 3.941779957185781677e+05
5.485199999999999854e+00 4.023169219979651971e+05
5.528400000000000425e+00 4.115515406649725628e+05
5.571600000000000108e+00 4.249848720946463291e+05
5.614799999999999791e+00 4.359926895716972067e+05
5.658000000000000362e+00 4.397627379669064539e+05
5.701200000000000045e+00 4.397224555780763621e+05
5.744399999999999729e+00 4.410566434782366268e+05
5.787600000000000300e+00 4.443280485279050190e+05
5.830700000000000216e+00 4.494951839730372885e+05
5.873899999999999899e+00 4.545824246572199045e+05
5.917099999999999582e+00 4.541930658950801007e+05
5.960300000000000153e+00 4.530359422608641325e+05
6.003499999999999837e+00 4.574632231187631842e+05
6.046700000000000408e+00 4.625395540190913016e+05
6.089900000000000091e+00 4.667510025105074747e+05
6.133099999999999774e+00 4.777878306339625269e+05
6.176300000000000345e+00 4.985809409277608502e+05
6.219500000000000028e+00 5.217507917434941628e+05
6.262699999999999712e+00 5.406482190294121392e+05
6.305799999999999628e+00 5.543393500453026500e+05
6.349000000000000199e+00 5.643807080167992972e+05
6.392199999999999882e+00 5.694408893912739586e+05
6.435399999999999565e+00 5.699196090087870834e+05
6.478600000000000136e+00 5.693463970229602419e+05
6.521799999999999820e+00 5.694601514264669968e+05
6.565000000000000391e+00 5.683493149826423032e+05
6.608200000000000074e+00 5.664982565041806083e+05
6.651399999999999757e+00 5.668187888870871393e+05
6.694600000000000328e+00 5.665837263931849739e+05
6.737800000000000011e+00 5.638836947383329971e+05
6.780899999999999928e+00 5.563951068923057755e+05
6.824099999999999611e+00 5.429902211208817316e+05
6.867300000000000182e+00 5.315485592704245355e+05
6.910499999999999865e+00 5.256243410076479195e+05
6.953700000000000436e+00 5.219665894301401568e+05
6.996900000000000119e+00 5.200072379912449978e+05
7.040099999999999802e+00 5.185294500193386921e+05
7.083300000000000374e+00 5.147206445476817898e+05
7.126500000000000057e+00 5.088089705505162128e+05
7.169699999999999740e+00 5.030241427826629952e+05
7.212799999999999656e+00 4.992453841114253737e+05
7.256000000000000227e+00 5.019483348431387567e+05
7.299199999999999910e+00 5.144951678111993824e+05
7.342399999999999594e+00 5.336708739674248500e+05
7.385600000000000165e+00 5.544317298593032174e+05
7.428799999999999848e+00 5.768816503255830612e+05
7.472000000000000419e+00 6.025712101108912611e+05
7.515200000000000102e+00 6.324868932525622658e+05
7.558399999999999785e+00 6.617941592802136438e+05
7.601600000000000357e+00 6.810224842361221090e+05
7.644800000000000040e+00 6.877984608215693152e+05
7.687899999999999956e+00 6.889640928149198880e+05
7.731099999999999639e+00 6.930374523656375241e+05
7.774300000000000210e+00 7.032604839492905885e+05
7.817499999999999893e+00 7.130033221393415006e+05
7.860699999999999577e+00 7.129250951811418636e+05
7.903900000000000148e+00 7.060524145090914099e+05
7.947099999999999831e+00 7.017648417061761720e+05
7.990300000000000402e+00 7.017423267719196156e+05
8.033500000000000085e+00 7.021597476402092725e+05
8.076700000000000657e+00 6.995870026185023598e+05
8.119899999999999451e+00 6.973249094650094630e+05
8.163000000000000256e+00 7.002434180539397057e+05
8.206200000000000827e+00 7.055535452178914566e+05
8.249399999999999622e+00 7.084695440228269435e+05
8.292600000000000193e+00 7.097394064637429547e+05
8.335800000000000765e+00 7.166235766979947221e+05
8.378999999999999559e+00 7.245578033881963929e+05
8.422200000000000131e+00 7.219222557223004987e+05
8.465400000000000702e+00 7.111960086317998357e+05
8.508599999999999497e+00 6.996472214752185391e+05
8.551800000000000068e+00 6.920414123236483429e+05
8.595000000000000639e+00 6.892124613559939899e+05
8.638099999999999667e+00 6.882212541222297587e+05
8.681300000000000239e+00 6.877399444014987675e+05
8.724500000000000810e+00 6.876648147254047217e+05
8.767699999999999605e+00 6.911898704626569524e+05
8.810900000000000176e+00 6.999278850464083953e+05
8.854100000000000747e+00 7.103895650382416788e+05
8.897299999999999542e+00 7.201112057571946643e+05
8.940500000000000114e+00 7.282734001372451894e+05
8.983700000000000685e+00 7.321271678719478659e+05
9.026899999999999480e+00 7.328108940533780260e+05
9.070000000000000284e+00 7.362407547478158958e+05
9.113200000000000855e+00 7.450698742372260895e+05
9.156399999999999650e+00 7.552024877769388258e+05
9.199600000000000222e+00 7.633561499831443653e+05
9.242800000000000793e+00 7.689287145637318026e+05
9.285999999999999588e+00 7.701865824654190801e+05
9.329200000000000159e+00 7.641319701197454706e+05
9.372400000000000730e+00 7.540449367642272264e+05
9.415599999999999525e+00 7.445407881395173026e+05
9.458800000000000097e+00 7.348650990536004538e+05
9.502000000000000668e+00 7.225677978514551651e+05
9.545099999999999696e+00 7.077765587441466050e+05
9.588300000000000267e+00 6.937629812418051297e+05
9.631500000000000838e+00 6.847986222052971134e+05
9.674699999999999633e+00 6.799404404721176252e+05
9.717900000000000205e+00 6.720820122392927296e+05
9.761100000000000776e+00 6.587771557948585832e+05
9.804299999999999571e+00 6.457216807942263549e+05
9.847500000000000142e+00 6.367885679606300546e+05
9.890700000000000713e+00 6.287120676749499980e+05
9.933899999999999508e+00 6.188241287193732569e+05
9.977100000000000080e+00 6.057755333181427559e+05
1.002020000000000088e+01 5.910743991581532173e+05
1.006339999999999968e+01 5.800913952429811470e+05
1.010660000000000025e+01 5.768321595578538254e+05
1.014980000000000082e+01 5.819821077792093856e+05
1.019299999999999962e+01 5.960930348772185389e+05
1.023620000000000019e+01 6.161539393952445826e+05
1.027940000000000076e+01 6.337171952311575878e+05
1.032259999999999955e+01 6.444023778812083183e+05
1.036580000000000013e+01 6.524040111542190425e+05
1.040900000000000070e+01 6.617867018278603209e+05
1.045219999999999949e+01 6.740698221153910272e+05
1.049530000000000030e+01 6.870233757680366980e+05
1.053850000000000087e+01 6.963694815505234292e+05
1.058169999999999966e+01 7.032103776699947193e+05
1.062490000000000023e+01 7.140113336909794016e+05
1.066810000000000080e+01 7.295911415805114666e+05
1.071129999999999960e+01 7.458292171034528874e+05
1.075450000000000017e+01 7.633051935554009397e+05
1.079770000000000074e+01 7.875865139572628541e+05
1.084089999999999954e+01 8.195176259974807035e+05
1.088410000000000011e+01 8.551391596580102341e+05
1.092719999999999914e+01 8.901758606718899682e+05
1.097039999999999971e+01 9.213940648734368151e+05
1.101360000000000028e+01 9.462219760961954016e+05
1.105680000000000085e+01 9.615384658770078095e+05
1.109999999999999964e+01 9.677197763543021865e+05
1.114320000000000022e+01 9.707981817242866382e+05
1.118640000000000079e+01 9.786823385209996486e+05
1.122959999999999958e+01 9.921236446503894404e+05
1.127280000000000015e+01 1.005502187022947008e+06
1.131600000000000072e+01 1.014885665815634886e+06
1.135919999999999952e+01 1.021974571139240288e+06
1.140230000000000032e+01 1.025445391965502757e+06
1.144549999999999912e+01 1.025636781313712476e+06
1.148869999999999969e+01 1.024154719077309826e+06
1.153190000000000026e+01 1.017235282439365401e+06
1.157510000000000083e+01 1.007584022886466933e+06
1.161829999999999963e+01 9.993656907237739069e+05
1.166150000000000020e+01 9.904154721322868718e+05
1.170470000000000077e+01 9.805277474385487149e+05
1.174789999999999957e+01 9.706108495331413578e+05
1.179110000000000014e+01 9.582747873826723080e+05
1.183430000000000071e+01 9.430319446515289601e+05
1.187739999999999974e+01 9.270189821479922393e+05
1.192060000000000031e+01 9.128252358581918525e+05
1.196380000000000088e+01 9.029751078012436628e+05
1.200699999999999967e+01 8.970178389288731851e+05
1.205020000000000024e+01 8.974368488138846587e+05
1.209340000000000082e+01 9.027862619326198474e+05
1.213659999999999961e+01 9.114589385805646889e+05
1.217980000000000018e+01 9.229279690992643591e+05
1.222300000000000075e+01 9.330079391211265465e+05
1.226619999999999955e+01 9.340989215974315302e+05
1.230940000000000012e+01 9.285342338806792395e+05
1.235249999999999915e+01 9.225753696021124488e+05
1.239569999999999972e+01 9.236172698983332375e+05
1.243890000000000029e+01 9.309801237304930110e+05
1.248210000000000086e+01 9.348833833797054831e+05
1.252529999999999966e+01 9.322070736477118917e+05
1.256850000000000023e+01 9.282522365100928582e+05
1.261170000000000080e+01 9.276715323758665472e+05
1.265489999999999959e+01 9.283709206610808615e+05
1.269810000000000016e+01 9.279841777497674339e+05
1.274130000000000074e+01 9.301509973692767089e+05
1.278439999999999976e+01 9.382401693022268591e+05
1.282760000000000034e+01 9.482663267641223501e+05
1.287079999999999913e+01 9.512261449225567048e+05
1.291399999999999970e+01 9.457411441219975241e+05
1.295720000000000027e+01 9.377100833913552342e+05
1.300040000000000084e+01 9.296628587846647715e+05
1.304359999999999964e+01 9.184223471935474081e+05
1.308680000000000021e+01 9.026565617961295648e+05
1.313000000000000078e+01 8.818828152947729686e+05
1.317319999999999958e+01 8.581303755436787615e+05
1.321640000000000015e+01 8.351816292893706122e+05
1.325949999999999918e+01 8.126757535182534484e+05
1.330269999999999975e+01 7.912608061894982820e+05
1.334590000000000032e+01 7.745669225550850388e+05
1.338909999999999911e+01 7.643915638581225649e+05
1.343229999999999968e+01 7.590452974310560385e+05
1.347550000000000026e+01 7.538865036202865886e+05
1.351870000000000083e+01 7.470639267847187584e+05
1.356189999999999962e+01 7.420369398539781105e+05
1.360510000000000019e+01 7.389065121469259029e+05
1.364830000000000076e+01 7.312690979314027354e+05
1.369149999999999956e+01 7.197930763379205018e+05
1.373460000000000036e+01 7.105115564489887329e+05
1.377779999999999916e+01 7.023529213547637919e+05
1.382099999999999973e+01 6.957629777384710032e+05
1.386420000000000030e+01 6.953596663894992089e+05
1.390740000000000087e+01 7.023219534341035178e+05
1.395059999999999967e+01 7.136728692975216545e+05
1.399380000000000024e+01 7.288142267470679944e+05
1.403700000000000081e+01 7.462538570333467796e+05
1.408019999999999960e+01 7.653274121465211501e+05
1.412340000000000018e+01 7.887474045773561811e+05
1.416660000000000075e+01 8.186145696198445512e+05
1.420969999999999978e+01 8.525129622703170171e+05
1.425290000000000035e+01 8.850030795658576535e+05
1.429609999999999914e+01 9.149676289152466925e+05
1.433929999999999971e+01 9.396470001251987414e+05
1.438250000000000028e+01 9.594096110009365948e+05
1.442570000000000086e+01 9.759590564413465327e+05
1.446889999999999965e+01 9.907534980151123600e+05
1.451210000000000022e+01 1.005999169949627481e+06
1.455530000000000079e+01 1.018133735748783103e+06
1.459849999999999959e+01 1.022787805011053802e+06
1.464160000000000039e+01 1.022434441417881288e+06
1.468479999999999919e+01 1.021598819255926763e+06
1.472799999999999976e+01 1.022827900938269566e+06
1.477120000000000033e+01 1.030570562516066362e+06
1.481439999999999912e+01 1.039510207450688933e+06
1.485759999999999970e+01 1.042005079725876683e+06
1.490080000000000027e+01 1.035934653031939059e+06
1.494400000000000084e+01 1.024409426154699875e+06
1.498719999999999963e+01 1.014545949809158337e+06
1.503040000000000020e+01 1.009248491187495762e+06
1.507360000000000078e+01 1.002077781797444215e+06
1.511669999999999980e+01 9.889982048197272234e+05
1.515990000000000038e+01 9.726307534452126129e+05
1.520309999999999917e+01 9.556796177460000617e+05
1.524629999999999974e+01 9.383345781018941198e+05
1.528950000000000031e+01 9.207176219837859971e+05
1.533270000000000088e+01 9.014200981385981431e+05
1.537589999999999968e+01 8.833206045046139043e+05
1.541910000000000025e+01 8.722995864116508747e+05
1.546230000000000082e+01 8.677788644414391601e+05
1.550549999999999962e+01 8.669115032776263542e+05
1.554870000000000019e+01 8.666268479849825380e+05
1.559179999999999922e+01 8.625357825105504598e+05
1.563499999999999979e+01 8.522538375124300364e+05
1.567820000000000036e+01 8.370596730122147128e+05
1.572139999999999915e+01 8.198283320380640216e+05
1.576459999999999972e+01 8.015278164465957088e+05
1.580780000000000030e+01 7.843335598454767605e+05
1.585100000000000087e+01 7.728664355750968680e+05
1.589419999999999966e+01 7.718101394869716605e+05
1.593740000000000023e+01 7.813428703692213167e+05
1.598060000000000080e+01 7.991847765295802383e+05
1.602380000000000138e+01 8.217505467782163760e+05
1.606690000000000040e+01 8.424346398577536456e+05
1.611009999999999920e+01 8.506726858963617124e+05
1.615330000000000155e+01 8.404028449921682477e+05
1.619650000000000034e+01 8.179180736441178015e+05
1.623969999999999914e+01 7.905394489495930029e+05
1.628290000000000148e+01 7.624314993792362511e+05
1.632610000000000028e+01 7.380759950535120443e+05
1.636929999999999907e+01 7.200293414181238040e+05
1.641250000000000142e+01 7.059648219320187345e+05
1.645570000000000022e+01 7.033045392199946800e+05
1.649889999999999901e+01 7.256164783237862866e+05
1.654200000000000159e+01 7.747856045697599184e+05
1.658520000000000039e+01 8.306673411007146351e+05
1.662839999999999918e+01 8.631051457589681959e+05
1.667160000000000153e+01 8.529634240026740590e+05
1.671480000000000032e+01 8.094811339967258973e+05
1.675799999999999912e+01 7.601043172723167809e+05
1.680120000000000147e+01 7.189596290295539657e+05
1.684440000000000026e+01 6.860223675573938526e+05
1.688759999999999906e+01 6.603604889398750383e+05
1.693080000000000140e+01 6.435567107714586891e+05
1.697390000000000043e+01 6.349366929036315996e+05
1.701709999999999923e+01 6.300538064845112385e+05
1.706030000000000157e+01 6.242310452844990650e+05
1.710350000000000037e+01 6.181056814935383154e+05
1.714669999999999916e+01 6.176850194630990736e+05
1.718990000000000151e+01 6.255515504154069349e+05
