# energy(eV) alpha
0.000000000000000000e+00 0.000000000000000000e+00
4.680000000000000132e-02 2.879088892086916207e-01
9.360000000000000264e-02 1.151593129422139095e+00
1.405000000000000138e-01 2.592834520378837659e+00
1.872999999999999943e-01 4.608323889057107436e+00
2.341000000000000025e-01 7.919127542443483492e+00
2.808999999999999830e-01 1.122872261974329611e+01
3.277999999999999803e-01 1.511776200028767292e+01
3.745999999999999885e-01 1.957684559279871550e+01
4.213999999999999968e-01 2.460977084977122331e+01
4.682000000000000051e-01 3.021608923585538165e+01
5.151000000000000023e-01 3.640148549355092200e+01
5.618999999999999551e-01 4.487911694966010856e+01
6.087000000000000188e-01 5.234431795434647938e+01
6.554999999999999716e-01 6.038074971761989929e+01
7.024000000000000243e-01 6.899529628769779777e+01
7.491999999999999771e-01 7.816989919139565757e+01
7.960000000000000409e-01 9.035349858222009800e+01
8.427999999999999936e-01 1.008042317495716134e+02
8.897000000000000464e-01 1.118319814698749326e+02
9.364999999999999991e-01 1.253257013581547454e+02
9.832999999999999519e-01 1.385677351172315355e+02
1.030100000000000016e+00 1.514134140782367410e+02
1.076999999999999957e+00 1.670298821778445131e+02
1.123799999999999910e+00 1.822346560408059020e+02
1.170600000000000085e+00 1.992838022548265542e+02
1.217400000000000038e+00 2.158321450417990093e+02
1.264299999999999979e+00 2.343347107114155392e+02
1.311099999999999932e+00 2.522256210039663813e+02
1.357900000000000107e+00 2.721347008078664658e+02
1.404700000000000060e+00 2.913530967730712860e+02
1.451600000000000001e+00 3.141797726041284591e+02
1.498399999999999954e+00 3.362848491284937609e+02
1.545199999999999907e+00 3.575463000154863380e+02
1.592000000000000082e+00 3.826633966351024583e+02
1.638900000000000023e+00 4.086213110793508463e+02
1.685699999999999976e+00 4.336534208527213536e+02
1.732499999999999929e+00 4.611482004277745546e+02
1.779300000000000104e+00 4.894521377602165444e+02
1.826200000000000045e+00 5.185759251891956865e+02
1.872999999999999998e+00 5.484587995375936771e+02
1.919799999999999951e+00 5.810704982173028839e+02
1.966599999999999904e+00 6.125792816760853157e+02
2.013500000000000068e+00 6.448933782467886431e+02
2.060299999999999798e+00 6.820947437971491354e+02
2.107099999999999973e+00 7.181295813047406682e+02
2.153900000000000148e+00 7.571755072358791949e+02
2.200800000000000090e+00 7.949946268864464400e+02
2.247599999999999820e+00 8.381111761229566355e+02
2.294399999999999995e+00 8.799579967535764808e+02
2.341200000000000170e+00 9.250541355209703624e+02
2.388100000000000112e+00 9.711845049920161728e+02
2.434899999999999842e+00 1.018272940811397348e+03
2.481700000000000017e+00 1.066340196433115125e+03
2.528500000000000192e+00 1.117883008933925566e+03
2.575299999999999923e+00 1.173048915338858933e+03
2.622199999999999864e+00 1.224165524950260306e+03
2.669000000000000039e+00 1.284130941546117356e+03
2.715800000000000214e+00 1.345281926535941466e+03
2.762599999999999945e+00 1.407606954635838520e+03
2.809499999999999886e+00 1.471138311663490867e+03
2.856300000000000061e+00 1.535785990598601757e+03
2.903099999999999792e+00 1.610134379083650856e+03
2.949899999999999967e+00 1.677144476076075307e+03
2.996799999999999908e+00 1.754144444243440375e+03
3.043600000000000083e+00 1.832423438636490800e+03
3.090399999999999814e+00 1.921076798098328936e+03
3.137199999999999989e+00 2.002089593161670336e+03
3.184099999999999930e+00 2.093738187786053004e+03
3.230900000000000105e+00 2.186818293874847313e+03
3.277699999999999836e+00 2.287733107446325903e+03
3.324500000000000011e+00 2.387007156373458201e+03
3.371399999999999952e+00 2.500909000741284217e+03
3.418200000000000127e+00 2.613174287991934762e+03
3.464999999999999858e+00 2.730440748789677400e+03
3.511800000000000033e+00 2.856127980994065183e+03
3.558699999999999974e+00 2.987125473320885703e+03
3.605500000000000149e+00 3.123329577430014069e+03
3.652299999999999880e+00 3.271809214805268311e+03
3.699100000000000055e+00 3.422297607939717182e+03
3.745999999999999996e+00 3.585536437173774175e+03
3.792800000000000171e+00 3.761551621887243982e+03
3.839599999999999902e+00 3.947058617506494556e+03
3.886400000000000077e+00 4.149496887783610873e+03
3.933300000000000018e+00 4.354503290146025392e+03
3.980100000000000193e+00 4.584153007940901261e+03
4.026900000000000368e+00 4.827630277028597447e+03
4.073699999999999655e+00 5.092845203518309972e+03
4.120599999999999596e+00 5.376226764415458092e+03
4.167399999999999771e+00 5.693255046546188169e+03
4.214199999999999946e+00 6.036698496126439750e+03
4.261000000000000121e+00 6.418601902337613865e+03
4.307900000000000063e+00 6.851328424958353935e+03
4.354700000000000237e+00 7.351014936964987101e+03
4.401500000000000412e+00 7.926592230653847764e+03
4.448299999999999699e+00 8.610801623388741064e+03
4.495199999999999640e+00 9.465512079446163625e+03
4.541999999999999815e+00 1.056514727975946334e+04
4.588799999999999990e+00 1.208408253857745694e+04
4.635600000000000165e+00 1.427072829447147342e+04
4.682500000000000107e+00 1.735326384155607593e+04
4.729300000000000281e+00 2.062958396033036115e+04
4.776099999999999568e+00 2.265226199441160497e+04
4.822899999999999743e+00 2.390230990792298326e+04
4.869799999999999685e+00 2.632819236421125970e+04
4.916599999999999859e+00 3.123632090770902505e+04
4.963400000000000034e+00 3.843892362412335206e+04
5.010200000000000209e+00 4.532319400839541049e+04
5.057000000000000384e+00 4.898787883974223223e+04
5.103900000000000325e+00 5.069058901979203802e+04
5.150699999999999612e+00 5.433941538684848638e+04
5.197499999999999787e+00 6.046939888785754010e+04
5.244299999999999962e+00 6.837810996633111790e+04
5.291199999999999903e+00 7.514624966680172656e+04
5.338000000000000078e+00 8.113581489393644733e+04
5.384800000000000253e+00 8.644877041479594482e+04
5.431600000000000428e+00 9.130263422010395152e+04
5.478500000000000369e+00 9.427551067139527004e+04
5.525299999999999656e+00 9.389066499766893685e+04
5.572099999999999831e+00 9.237414194641933136e+04
5.618900000000000006e+00 9.141983731625552173e+04
5.665799999999999947e+00 9.271785314453535830e+04
5.712600000000000122e+00 9.647623057828670426e+04
5.759400000000000297e+00 1.016394647349631996e+05
5.806199999999999584e+00 1.104578363376194029e+05
5.853100000000000414e+00 1.258766102121535223e+05
5.899899999999999700e+00 1.482315962075664138e+05
5.946699999999999875e+00 1.779257963362490118e+05
5.993500000000000050e+00 2.098806036689156317e+05
6.040399999999999991e+00 2.391915527793050278e+05
6.087200000000000166e+00 2.628946721486934111e+05
6.134000000000000341e+00 2.777203158374533523e+05
6.180799999999999628e+00 2.888890165018373518e+05
6.227699999999999569e+00 3.045949763873853371e+05
6.274499999999999744e+00 3.326175413867486641e+05
6.321299999999999919e+00 3.721518360333424062e+05
6.368100000000000094e+00 4.116139746153681772e+05
6.415000000000000036e+00 4.374624014545210521e+05
6.461800000000000210e+00 4.447431762596410117e+05
6.508600000000000385e+00 4.430518564704168821e+05
6.555399999999999672e+00 4.421249049673523405e+05
6.602299999999999613e+00 4.473423986439324799e+05
6.649099999999999788e+00 4.577128884733021259e+05
6.695899999999999963e+00 4.756495128053686931e+05
6.742700000000000138e+00 5.035882997728277696e+05
6.789600000000000080e+00 5.330520722399827791e+05
6.836400000000000254e+00 5.475851555984453298e+05
6.883200000000000429e+00 5.558418135632497724e+05
6.929999999999999716e+00 5.766512257370261941e+05
6.976899999999999658e+00 6.105415273092627758e+05
7.023699999999999832e+00 6.382307486659379210e+05
7.070500000000000007e+00 6.448878312469888479e+05
7.117300000000000182e+00 6.392777277148552239e+05
7.164200000000000124e+00 6.379904813681046944e+05
7.211000000000000298e+00 6.407884158664727584e+05
7.257799999999999585e+00 6.492485138056693831e+05
7.304599999999999760e+00 6.570277252389335772e+05
7.351499999999999702e+00 6.586705790465618484e+05
7.398299999999999876e+00 6.631409821738906903e+05
7.445100000000000051e+00 6.787323091489812359e+05
7.491900000000000226e+00 7.049654453850353602e+05
7.538700000000000401e+00 7.306663883678530110e+05
7.585600000000000342e+00 7.527296652519595809e+05
7.632399999999999629e+00 7.772355791042599594e+05
7.679199999999999804e+00 7.989350239557276946e+05
7.725999999999999979e+00 8.073790771937688114e+05
7.772899999999999920e+00 8.073829771020292537e+05
7.819700000000000095e+00 8.056797471103731077e+05
7.866500000000000270e+00 7.934013398499562172e+05
7.913299999999999557e+00 7.763867329728436889e+05
7.960200000000000387e+00 7.634380504519016249e+05
8.006999999999999673e+00 7.518316698228694731e+05
8.053800000000000736e+00 7.454879735922153341e+05
8.100600000000000023e+00 7.447174099777597003e+05
8.147500000000000853e+00 7.495643486534833210e+05
8.194300000000000139e+00 7.586552822549113771e+05
8.241099999999999426e+00 7.648443169700832805e+05
8.287900000000000489e+00 7.659041580709432019e+05
8.334799999999999542e+00 7.673493262807525462e+05
8.381600000000000605e+00 7.717623377709215274e+05
8.428399999999999892e+00 7.743220492775030434e+05
8.475199999999999179e+00 7.721916606961754151e+05
8.522100000000000009e+00 7.699530269849387696e+05
8.568899999999999295e+00 7.750766264897028450e+05
8.615700000000000358e+00 7.828559164539917838e+05
8.662499999999999645e+00 7.816559096435805550e+05
8.709400000000000475e+00 7.769471180527668912e+05
8.756199999999999761e+00 7.782587905513079604e+05
8.803000000000000824e+00 7.802315282711900072e+05
8.849800000000000111e+00 7.848847760613148566e+05
8.896699999999999164e+00 7.943189709828944178e+05
8.943500000000000227e+00 8.049535084942978574e+05
8.990299999999999514e+00 8.135472635499859462e+05
9.037100000000000577e+00 8.200026616476697382e+05
9.083999999999999631e+00 8.346222695960674901e+05
9.130800000000000693e+00 8.616051864064284600e+05
9.177599999999999980e+00 8.903820294834754895e+05
9.224399999999999267e+00 9.126931431748525938e+05
9.271300000000000097e+00 9.243125908016676549e+05
9.318099999999999383e+00 9.300697934738030890e+05
9.364900000000000446e+00 9.302234124066391960e+05
9.411699999999999733e+00 9.191821636724740965e+05
9.458600000000000563e+00 8.998577023135446943e+05
9.505399999999999849e+00 8.829490047896641772e+05
9.552199999999999136e+00 8.720138066608854569e+05
9.599000000000000199e+00 8.565766567863662494e+05
9.645899999999999253e+00 8.322171841748782899e+05
9.692700000000000315e+00 8.055616752023259178e+05
9.739499999999999602e+00 7.836517070373086026e+05
9.786300000000000665e+00 7.681467819589027204e+05
9.833099999999999952e+00 7.534331004224858480e+05
9.880000000000000782e+00 7.391329371294684242e+05
9.926800000000000068e+00 7.306654845160592813e+05
9.973599999999999355e+00 7.298878548711852636e+05
1.002040000000000042e+01 7.302258789595850976e+05
1.006729999999999947e+01 7.351265847735244315e+05
1.011410000000000053e+01 7.474911211243733997e+05
1.016089999999999982e+01 7.626306488002148690e+05
1.020770000000000088e+01 7.725169997560401680e+05
1.025459999999999994e+01 7.697924969836844830e+05
1.030139999999999922e+01 7.589618653830881231e+05
1.034820000000000029e+01 7.408918394899270497e+05
1.039499999999999957e+01 7.142204776145045180e+05
1.044190000000000040e+01 6.840166835161664058e+05
1.048869999999999969e+01 6.538850256195178954e+05
1.053550000000000075e+01 6.321061188600722235e+05
1.058230000000000004e+01 6.210355931892336812e+05
1.062920000000000087e+01 6.171700543186533032e+05
1.067600000000000016e+01 6.251256585308634676e+05
1.072279999999999944e+01 6.415906297788458178e+05
1.076960000000000051e+01 6.538750681291744113e+05
1.081649999999999956e+01 6.600451144096131902e+05
1.086330000000000062e+01 6.624494889009175822e+05
1.091009999999999991e+01 6.613082283651401522e+05
1.095689999999999920e+01 6.622427644754477078e+05
1.100380000000000003e+01 6.656630948987446027e+05
1.105059999999999931e+01 6.701236830983969849e+05
1.109740000000000038e+01 6.840550661023322027e+05
1.114419999999999966e+01 7.041810623171412153e+05
1.119110000000000049e+01 7.135158741026443895e+05
1.123789999999999978e+01 7.139789384427147452e+05
1.128470000000000084e+01 7.063648677209380548e+05
1.133150000000000013e+01 6.957459517568345182e+05
1.137839999999999918e+01 6.900500849852840183e+05
1.142520000000000024e+01 6.860468515796985012e+05
1.147199999999999953e+01 6.830407931362845702e+05
1.151880000000000059e+01 6.866972138150067767e+05
1.156569999999999965e+01 7.040313770245832857e+05
1.161250000000000071e+01 7.337649906031308929e+05
1.165930000000000000e+01 7.648916919992943294e+05
1.170609999999999928e+01 7.826447001403829781e+05
1.175300000000000011e+01 7.878392196615732973e+05
1.179979999999999940e+01 7.918179102738022339e+05
1.184660000000000046e+01 7.958098422631542198e+05
1.189339999999999975e+01 7.935889343221171293e+05
1.194030000000000058e+01 7.793212402480440214e+05
1.198709999999999987e+01 7.569944165842320072e+05
1.203389999999999915e+01 7.378821116865869844e+05
1.208070000000000022e+01 7.302815771280679619e+05
1.212759999999999927e+01 7.345713975573449861e+05
1.217440000000000033e+01 7.471512274363542674e+05
1.222119999999999962e+01 7.654600850708559155e+05
1.226800000000000068e+01 7.798780241261429619e+05
1.231479999999999997e+01 7.902858838035251247e+05
1.236170000000000080e+01 8.034944114890416386e+05
1.240850000000000009e+01 8.100214134354040725e+05
1.245529999999999937e+01 8.052055028475676663e+05
1.250210000000000043e+01 7.998309712729565799e+05
1.254899999999999949e+01 8.034391139130451484e+05
1.259580000000000055e+01 8.128062605772048701e+05
1.264259999999999984e+01 8.213380122840612894e+05
1.268939999999999912e+01 8.255714385323056486e+05
1.273629999999999995e+01 8.302896727584009059e+05
1.278309999999999924e+01 8.416977587865099777e+05
1.282990000000000030e+01 8.577952668431430357e+05
1.287669999999999959e+01 8.638946893213172443e+05
1.292360000000000042e+01 8.593081209942990681e+05
1.297039999999999971e+01 8.598820493289371952e+05
1.301720000000000077e+01 8.651451461724246619e+05
1.306400000000000006e+01 8.616159735413558083e+05
1.311090000000000089e+01 8.571842125607675407e+05
1.315770000000000017e+01 8.582379995358939050e+05
1.320449999999999946e+01 8.563220971421723953e+05
1.325130000000000052e+01 8.500752538436739706e+05
1.329819999999999958e+01 8.489916763341672486e+05
1.334500000000000064e+01 8.606784398941553663e+05
1.339179999999999993e+01 8.762245813937418861e+05
1.343859999999999921e+01 8.869917363256538520e+05
1.348550000000000004e+01 8.897105294320691610e+05
1.353229999999999933e+01 8.829891701252635103e+05
1.357910000000000039e+01 8.653760399455748266e+05
1.362589999999999968e+01 8.364013703510896303e+05
1.367280000000000051e+01 8.098226033983359812e+05
1.371959999999999980e+01 7.934948226572660496e+05
1.376640000000000086e+01 7.797875126322160941e+05
1.381320000000000014e+01 7.560984366381926229e+05
1.386009999999999920e+01 7.234340034438095754e+05
1.390690000000000026e+01 6.947965471485712333e+05
1.395369999999999955e+01 6.836397714885825990e+05
1.400050000000000061e+01 6.891057809717786731e+05
1.404739999999999966e+01 7.060020325730321929e+05
1.409420000000000073e+01 7.306871998928965768e+05
1.414100000000000001e+01 7.515186000181053532e+05
1.418779999999999930e+01 7.687591491525043966e+05
1.423470000000000013e+01 7.928235523868828313e+05
1.428149999999999942e+01 8.255130190721915569e+05
1.432830000000000048e+01 8.671081559654495213e+05
1.437509999999999977e+01 9.157080803637277568e+05
1.442200000000000060e+01 9.628055992680318886e+05
1.446879999999999988e+01 1.007587760568691883e+06
1.451559999999999917e+01 1.058633216105599655e+06
1.456240000000000023e+01 1.110711518170471303e+06
1.460929999999999929e+01 1.146294576614146354e+06
1.465610000000000035e+01 1.158043109835903160e+06
1.470289999999999964e+01 1.161960496782666305e+06
1.474970000000000070e+01 1.169665428327315021e+06
1.479649999999999999e+01 1.173205207317955093e+06
1.484340000000000082e+01 1.166980860040128930e+06
1.489020000000000010e+01 1.162193767630279530e+06
1.493699999999999939e+01 1.160028834455704549e+06
1.498380000000000045e+01 1.149888569245946594e+06
1.503069999999999951e+01 1.124796835474798689e+06
1.507750000000000057e+01 1.090784161291133845e+06
1.512429999999999986e+01 1.060904422769226134e+06
1.517109999999999914e+01 1.042175284817712381e+06
1.521799999999999997e+01 1.023791435904435581e+06
1.526479999999999926e+01 9.994904628618805436e+05
1.531160000000000032e+01 9.763711287127746036e+05
1.535839999999999961e+01 9.578231209889643360e+05
1.540530000000000044e+01 9.509047233457064722e+05
1.545209999999999972e+01 9.608240954398179892e+05
1.549890000000000079e+01 9.812125111107939156e+05
1.554570000000000007e+01 9.992954227921804413e+05
1.559259999999999913e+01 1.008197692656396539e+06
1.563940000000000019e+01 1.014104093758004718e+06
1.568619999999999948e+01 1.021285273508248851e+06
1.573300000000000054e+01 1.032210213226221735e+06
1.577989999999999959e+01 1.039927626032903441e+06
1.582670000000000066e+01 1.035141516713756835e+06
1.587349999999999994e+01 1.016782829328640248e+06
1.592029999999999923e+01 9.805580181006622734e+05
1.596720000000000006e+01 9.311484491559991147e+05
1.601399999999999935e+01 8.953957587990345201e+05
1.606080000000000041e+01 8.802390930857640924e+05
1.610760000000000147e+01 8.730946819740576902e+05
1.615449999999999875e+01 8.746977238095161738e+05
1.620129999999999981e+01 8.933152372877919115e+05
1.624810000000000088e+01 9.312729617396622198e+05
1.629489999999999839e+01 9.739044836229790235e+05
1.634179999999999922e+01 9.918587708907368360e+05
1.638860000000000028e+01 9.633920085001519183e+05
1.643540000000000134e+01 9.072400198369617574e+05
1.648219999999999885e+01 8.522022406881882343e+05
1.652909999999999968e+01 8.095645484889606014e+05
1.657590000000000074e+01 7.839547758611425525e+05
1.662269999999999825e+01 7.745441324169543805e+05
1.666949999999999932e+01 7.734921889988556504e+05
1.671640000000000015e+01 7.723786100043087499e+05
1.676320000000000121e+01 7.712156733990286011e+05
1.680999999999999872e+01 7.752208226140845800e+05
1.685679999999999978e+01 7.795145641387087526e+05
1.690370000000000061e+01 7.839621367430614773e+05
1.695050000000000168e+01 7.936041362343602814e+05
1.699729999999999919e+01 7.988763022449541604e+05
1.704410000000000025e+01 7.993495064966998762e+05
1.709100000000000108e+01 8.025600338433599100e+05
1.713779999999999859e+01 8.041457189702098258e+05
1.718459999999999965e+01 8.032551084947213531e+05
1.723140000000000072e+01 8.027883177939833840e+05
1.727819999999999823e+01 8.030790494352014503e+05
1.732509999999999906e+01 7.997824656328862766e+05
1.737190000000000012e+01 7.952573890368115390e+05
1.741870000000000118e+01 7.981019103819221491e+05
1.746549999999999869e+01 8.031102985771693056e+05
1.751239999999999952e+01 7.986085439085912658e+05
1.755920000000000059e+01 7.887109789474331774e+05
1.760600000000000165e+01 7.912625581695685396e+05
1.765279999999999916e+01 8.096779495325500611e+05
1.769969999999999999e+01 8.372994015650668880e+05
1.774650000000000105e+01 8.550729987382950494e+05
1.779329999999999856e+01 8.528777495856469031e+05
1.784009999999999962e+01 8.331070559362920467e+05
1.788700000000000045e+01 7.965854272383961361e+05
1.793380000000000152e+01 7.614794903482547961e+05
1.798059999999999903e+01 7.370673735086466186e+05
1.802740000000000009e+01 7.181970218496144516e+05
1.807430000000000092e+01 7.075848172536029015e+05
1.812109999999999843e+01 7.106993783080599969e+05
1.816789999999999949e+01 7.180459478995730169e+05
1.821470000000000056e+01 7.232679273994322866e+05
1.826160000000000139e+01 7.357912510744300671e+05
1.830839999999999890e+01 7.621263641211617505e+05
1.835519999999999996e+01 7.944411871040130500e+05
1.840200000000000102e+01 8.204350693078619661e+05
1.844889999999999830e+01 8.346034033666765317e+05
1.849569999999999936e+01 8.408864963993876008e+05
1.854250000000000043e+01 8.460714800624491181e+05
1.858930000000000149e+01 8.540158280366351828e+05
1.863619999999999877e+01 8.659050229863615241e+05
