# energy(eV) alpha
0.000000000000000000e+00 0.000000000000000000e+00
4.170000000000000095e-02 7.377881735439626887e+00
8.340000000000000191e-02 2.971241167182765608e+01
1.250999999999999890e-01 6.736593796297523795e+01
1.668000000000000038e-01 1.207804041414818101e+02
2.084999999999999909e-01 1.908730797068928382e+02
2.501999999999999780e-01 2.787901834086525241e+02
2.918999999999999928e-01 3.861400835326314791e+02
3.336000000000000076e-01 5.151091453249596270e+02
3.751999999999999780e-01 6.674560564616411966e+02
4.168999999999999928e-01 8.471481115452937729e+02
4.586000000000000076e-01 1.058108005796188536e+03
5.002999999999999670e-01 1.306231115149122161e+03
5.420000000000000373e-01 1.597666490203286230e+03
5.836999999999999966e-01 1.942475788265161782e+03
6.253999999999999559e-01 2.354469614822084168e+03
6.671000000000000263e-01 2.851724475563165015e+03
7.087999999999999856e-01 3.460930161782237064e+03
7.504999999999999449e-01 4.223242737326640963e+03
7.922000000000000153e-01 5.202560851793206893e+03
8.338999999999999746e-01 6.505448910896144298e+03
8.756000000000000449e-01 8.316472973557716614e+03
9.173000000000000043e-01 1.095262873154826229e+04
9.589999999999999636e-01 1.492539511927409694e+04
1.000699999999999923e+00 2.066401291646132449e+04
1.042300000000000004e+00 2.718440841229105354e+04
1.084000000000000075e+00 3.142570868769327717e+04
1.125699999999999923e+00 3.229405208682166995e+04
1.167399999999999993e+00 3.334887549454115651e+04
1.209100000000000064e+00 3.815671967679317459e+04
1.250799999999999912e+00 4.837866030846591457e+04
1.292499999999999982e+00 6.380244721458195272e+04
1.334200000000000053e+00 8.101539505844142695e+04
1.375899999999999901e+00 9.711123491667320195e+04
1.417599999999999971e+00 1.106289231718294468e+05
1.459300000000000042e+00 1.124028972730124806e+05
1.500999999999999890e+00 1.013070799635938893e+05
1.542699999999999960e+00 9.037332770607952261e+04
1.584400000000000031e+00 8.850492779321124544e+04
1.626100000000000101e+00 9.426598187696113018e+04
1.667799999999999949e+00 1.043679182883848407e+05
1.709400000000000031e+00 1.221351194349717116e+05
1.751100000000000101e+00 1.469573448190063355e+05
1.792799999999999949e+00 1.716455528738904977e+05
1.834500000000000020e+00 1.960585688397292979e+05
1.876200000000000090e+00 2.181011655524201051e+05
1.917899999999999938e+00 2.323691283540696604e+05
1.959600000000000009e+00 2.318035915974355594e+05
2.001300000000000079e+00 2.246106729470111604e+05
2.043000000000000149e+00 2.259691535581426288e+05
2.084700000000000220e+00 2.402303162526261585e+05
2.126399999999999846e+00 2.584399227574426332e+05
2.168099999999999916e+00 2.724891776538955164e+05
2.209799999999999986e+00 2.742835632842762861e+05
2.251500000000000057e+00 2.744145851437769597e+05
2.293200000000000127e+00 2.823557978846136248e+05
2.334900000000000198e+00 2.844837367709905957e+05
2.376500000000000057e+00 2.798625063239758019e+05
2.418200000000000127e+00 2.786675984366436023e+05
2.459900000000000198e+00 2.829606141905424302e+05
2.501599999999999824e+00 2.911563718918879749e+05
2.543299999999999894e+00 2.978809737470953260e+05
2.584999999999999964e+00 3.013712813609505538e+05
2.626700000000000035e+00 2.954450645536973607e+05
2.668400000000000105e+00 2.782365700368451071e+05
2.710100000000000176e+00 2.539943361828844645e+05
2.751799999999999802e+00 2.308425512402937456e+05
2.793499999999999872e+00 2.147926804066323966e+05
2.835199999999999942e+00 2.067341422669219319e+05
2.876900000000000013e+00 2.053777658926768054e+05
2.918600000000000083e+00 2.083378480310994782e+05
2.960300000000000153e+00 2.160634928125053120e+05
3.001999999999999780e+00 2.303303180177240574e+05
3.043699999999999850e+00 2.496551860072588897e+05
3.085300000000000153e+00 2.695087128916392685e+05
3.126999999999999780e+00 2.871221842859969474e+05
3.168699999999999850e+00 3.018490739757466945e+05
3.210399999999999920e+00 3.156841287501224433e+05
3.252099999999999991e+00 3.308438988753498998e+05
3.293800000000000061e+00 3.485413776830859133e+05
3.335500000000000131e+00 3.679313509046163526e+05
3.377200000000000202e+00 3.872081598239458399e+05
3.418899999999999828e+00 4.014765665616765618e+05
3.460599999999999898e+00 4.097809922512964113e+05
3.502299999999999969e+00 4.166436889514016220e+05
3.544000000000000039e+00 4.226949590849579545e+05
3.585700000000000109e+00 4.292235544233286637e+05
3.627400000000000180e+00 4.394757472174099530e+05
3.669099999999999806e+00 4.526262115964393015e+05
3.710799999999999876e+00 4.611255668405786855e+05
3.752400000000000180e+00 4.599222490408426384e+05
3.794099999999999806e+00 4.533118779595718952e+05
3.835799999999999876e+00 4.452452423347885488e+05
3.877499999999999947e+00 4.341071567389862612e+05
3.919200000000000017e+00 4.203191644864254631e+05
3.960900000000000087e+00 4.052563311145247426e+05
4.002600000000000158e+00 3.884673538137862342e+05
4.044299999999999784e+00 3.723478637186817941e+05
4.086000000000000298e+00 3.600545553754524444e+05
4.127699999999999925e+00 3.520228317911733757e+05
4.169400000000000439e+00 3.470310636948784813e+05
4.211100000000000065e+00 3.430519988985217642e+05
4.252799999999999692e+00 3.405345262708570226e+05
4.294500000000000206e+00 3.414476672925293678e+05
4.336199999999999832e+00 3.430748047871453455e+05
4.377900000000000347e+00 3.423997602221673587e+05
4.419500000000000206e+00 3.390114255092513631e+05
4.461199999999999832e+00 3.356741549526599119e+05
4.502900000000000347e+00 3.355011440572047140e+05
4.544599999999999973e+00 3.412759654104846995e+05
4.586299999999999599e+00 3.538284841045077192e+05
4.628000000000000114e+00 3.707903262226814986e+05
4.669699999999999740e+00 3.888878965617791982e+05
4.711400000000000254e+00 4.078506568724623648e+05
4.753099999999999881e+00 4.261777748872066149e+05
4.794800000000000395e+00 4.413647129450613284e+05
4.836500000000000021e+00 4.533859136906807544e+05
4.878199999999999648e+00 4.630768052998011117e+05
4.919900000000000162e+00 4.698785062400386669e+05
4.961599999999999788e+00 4.715387944052118692e+05
5.003300000000000303e+00 4.694728152440346894e+05
5.044999999999999929e+00 4.649966870650986093e+05
5.086599999999999788e+00 4.596157580781244906e+05
5.128300000000000303e+00 4.548922900354206213e+05
5.169999999999999929e+00 4.514291293969235267e+05
5.211700000000000443e+00 4.473274155844781199e+05
5.253400000000000070e+00 4.383465406474543270e+05
5.295099999999999696e+00 4.266813839555740706e+05
5.336800000000000210e+00 4.158691546644435148e+05
5.378499999999999837e+00 4.059803006047637900e+05
5.420200000000000351e+00 3.957257942337737768e+05
5.461899999999999977e+00 3.845465316417847644e+05
5.503599999999999604e+00 3.743999618928866694e+05
5.545300000000000118e+00 3.684350426020668237e+05
5.586999999999999744e+00 3.666228521031424752e+05
5.628700000000000259e+00 3.665874519315422513e+05
5.670399999999999885e+00 3.666542047840066371e+05
5.712100000000000399e+00 3.666078358205537079e+05
5.753800000000000026e+00 3.663717871052286355e+05
5.795399999999999885e+00 3.657634020074866130e+05
5.837100000000000399e+00 3.684348224660296692e+05
5.878800000000000026e+00 3.777919683222540771e+05
5.920499999999999652e+00 3.925311842997447820e+05
5.962200000000000166e+00 4.091628645827510627e+05
6.003899999999999793e+00 4.265226103222931270e+05
6.045600000000000307e+00 4.468826126709867385e+05
6.087299999999999933e+00 4.720050636964112055e+05
6.128999999999999559e+00 5.013640243412493728e+05
6.170700000000000074e+00 5.335835379875629442e+05
6.212399999999999700e+00 5.677300233504800126e+05
6.254100000000000215e+00 6.000148578390509356e+05
6.295799999999999841e+00 6.269007754397682147e+05
6.337500000000000355e+00 6.496423579641928663e+05
6.379199999999999982e+00 6.713277186974254437e+05
6.420899999999999608e+00 6.935067803319063969e+05
6.462500000000000355e+00 7.138587574351682561e+05
6.504199999999999982e+00 7.297130981105073588e+05
6.545899999999999608e+00 7.439621782186881173e+05
6.587600000000000122e+00 7.592704971508489689e+05
6.629299999999999748e+00 7.759958640005521011e+05
6.671000000000000263e+00 7.936837299720940646e+05
6.712699999999999889e+00 8.086698120879293419e+05
6.754400000000000404e+00 8.174019659890874755e+05
6.796100000000000030e+00 8.204509601283550728e+05
6.837799999999999656e+00 8.198244734887903323e+05
6.879500000000000171e+00 8.177360297532561235e+05
6.921199999999999797e+00 8.171296244654378388e+05
6.962900000000000311e+00 8.193874866213571513e+05
7.004599999999999937e+00 8.234925042507097824e+05
7.046299999999999564e+00 8.285798281144280918e+05
7.088000000000000078e+00 8.346346047597493744e+05
7.129599999999999937e+00 8.417130425601017196e+05
7.171299999999999564e+00 8.503858432251577033e+05
7.213000000000000078e+00 8.616274120176269207e+05
7.254699999999999704e+00 8.767117748657871271e+05
7.296400000000000219e+00 8.939561798403908033e+05
7.338099999999999845e+00 9.093083239324974129e+05
7.379800000000000360e+00 9.208414943638131954e+05
7.421499999999999986e+00 9.291499442807779415e+05
7.463199999999999612e+00 9.362101631686092587e+05
7.504900000000000126e+00 9.424011112603306537e+05
7.546599999999999753e+00 9.472048815814857371e+05
7.588300000000000267e+00 9.517368693454528693e+05
7.629999999999999893e+00 9.574166029795835493e+05
7.671700000000000408e+00 9.630553550068704644e+05
7.713400000000000034e+00 9.667512462861938402e+05
7.755099999999999660e+00 9.697907344659673981e+05
7.796800000000000175e+00 9.729375827311814064e+05
7.838400000000000034e+00 9.759382327898122603e+05
7.880099999999999660e+00 9.801817281017787755e+05
7.921800000000000175e+00 9.866517087005649228e+05
7.963499999999999801e+00 9.947613826664676890e+05
8.005200000000000315e+00 1.000933849940144457e+06
8.046900000000000830e+00 1.002113559287100215e+06
8.088599999999999568e+00 9.998688780595890712e+05
8.130300000000000082e+00 9.972471198206709232e+05
8.172000000000000597e+00 9.955215442509538261e+05
8.213699999999999335e+00 9.946208069067986216e+05
8.255399999999999849e+00 9.941909801995338639e+05
8.297100000000000364e+00 9.940175711089589167e+05
8.338800000000000878e+00 9.946496383418566547e+05
8.380499999999999616e+00 9.983048738583489321e+05
8.422200000000000131e+00 1.006502349758748082e+06
8.463900000000000645e+00 1.017822526793400291e+06
8.505499999999999616e+00 1.028541636286702240e+06
8.547200000000000131e+00 1.036851046827309532e+06
8.588900000000000645e+00 1.042713085887156893e+06
8.630599999999999383e+00 1.045464155813968275e+06
8.672299999999999898e+00 1.045755051900810678e+06
8.714000000000000412e+00 1.044976549984842539e+06
8.755699999999999150e+00 1.044213554217247292e+06
8.797399999999999665e+00 1.043643080899995519e+06
8.839100000000000179e+00 1.042771607772235759e+06
8.880800000000000693e+00 1.042751937964119599e+06
8.922499999999999432e+00 1.045081948362218216e+06
8.964199999999999946e+00 1.049162963047223398e+06
9.005900000000000460e+00 1.053376847166360123e+06
9.047599999999999199e+00 1.055927052011768799e+06
9.089299999999999713e+00 1.057149569614902139e+06
9.131000000000000227e+00 1.059347860855272738e+06
9.172599999999999199e+00 1.064114334626235068e+06
9.214299999999999713e+00 1.070003960628038505e+06
9.256000000000000227e+00 1.073656866763825063e+06
9.297700000000000742e+00 1.073528097124647582e+06
9.339399999999999480e+00 1.070373479916255223e+06
9.381099999999999994e+00 1.066117041811949341e+06
9.422800000000000509e+00 1.062025647947808495e+06
9.464499999999999247e+00 1.058756265572916949e+06
9.506199999999999761e+00 1.056117378270120593e+06
9.547900000000000276e+00 1.052776268534086179e+06
9.589600000000000790e+00 1.048185531913272571e+06
9.631299999999999528e+00 1.042128706389367115e+06
9.673000000000000043e+00 1.034943376427864772e+06
9.714700000000000557e+00 1.027360367287266534e+06
9.756399999999999295e+00 1.020677026073394343e+06
9.798099999999999810e+00 1.015307295921612415e+06
9.839700000000000557e+00 1.010337111528094974e+06
9.881399999999999295e+00 1.005159120397784864e+06
9.923099999999999810e+00 1.000505096569801681e+06
9.964800000000000324e+00 9.965581732707862975e+05
1.000650000000000084e+01 9.906015748278473038e+05
1.004819999999999958e+01 9.827166570278903237e+05
1.008990000000000009e+01 9.747499217709185323e+05
1.013160000000000061e+01 9.678411798775239149e+05
1.017329999999999934e+01 9.637668020117382985e+05
1.021499999999999986e+01 9.634581488674642751e+05
1.025670000000000037e+01 9.650977642138267402e+05
1.029840000000000089e+01 9.669616334782144986e+05
1.034009999999999962e+01 9.684286967708115699e+05
1.038180000000000014e+01 9.690015801112460904e+05
1.042350000000000065e+01 9.696310272246128879e+05
1.046519999999999939e+01 9.692588102251685923e+05
1.050689999999999991e+01 9.649168791932243621e+05
1.054850000000000065e+01 9.564490120304781012e+05
1.059019999999999939e+01 9.453934640455485787e+05
1.063189999999999991e+01 9.334727563471362228e+05
1.067360000000000042e+01 9.217640423665781273e+05
1.071529999999999916e+01 9.111162407215804560e+05
1.075699999999999967e+01 9.020934866028997349e+05
1.079870000000000019e+01 8.952214364429727430e+05
1.084040000000000070e+01 8.914798852769865189e+05
1.088209999999999944e+01 8.891405863830093294e+05
1.092379999999999995e+01 8.848493790868422948e+05
1.096550000000000047e+01 8.760454669914565748e+05
1.100719999999999921e+01 8.626418362511229934e+05
1.104889999999999972e+01 8.465388229487307835e+05
1.109060000000000024e+01 8.300977396956733428e+05
1.113230000000000075e+01 8.160242245322335511e+05
1.117399999999999949e+01 8.055466234117770800e+05
1.121560000000000024e+01 7.979406673912080005e+05
1.125730000000000075e+01 7.911916588011868298e+05
1.129899999999999949e+01 7.847328945278092287e+05
1.134070000000000000e+01 7.786274036374065327e+05
1.138240000000000052e+01 7.738355441864576424e+05
1.142409999999999926e+01 7.717138002019462874e+05
1.146579999999999977e+01 7.708662528248088202e+05
1.150750000000000028e+01 7.699065794967234833e+05
1.154920000000000080e+01 7.696686885627422016e+05
1.159089999999999954e+01 7.699882449362818152e+05
1.163260000000000005e+01 7.691292521702719387e+05
1.167430000000000057e+01 7.662572771642656298e+05
1.171599999999999930e+01 7.622778948108714540e+05
1.175769999999999982e+01 7.591073028895396274e+05
1.179940000000000033e+01 7.592989832254977664e+05
1.184110000000000085e+01 7.628884675477530109e+05
1.188269999999999982e+01 7.670767949603487505e+05
1.192440000000000033e+01 7.695205364272984443e+05
1.196610000000000085e+01 7.711049577058192808e+05
1.200779999999999959e+01 7.729866989778217394e+05
1.204950000000000010e+01 7.740531508545578690e+05
1.209120000000000061e+01 7.734343291104293894e+05
1.213289999999999935e+01 7.720589190334040904e+05
1.217459999999999987e+01 7.698253425304853590e+05
1.221630000000000038e+01 7.671813948334859451e+05
1.225799999999999912e+01 7.662086690675979480e+05
1.229969999999999963e+01 7.682021393982176669e+05
1.234140000000000015e+01 7.723652142926884117e+05
1.238310000000000066e+01 7.775407748570173280e+05
1.242479999999999940e+01 7.857549108989590313e+05
1.246649999999999991e+01 7.999098271458088420e+05
1.250820000000000043e+01 8.178755316298662219e+05
1.254979999999999940e+01 8.335419719047760591e+05
1.259149999999999991e+01 8.445078291478847386e+05
1.263320000000000043e+01 8.520897744250961114e+05
1.267489999999999917e+01 8.563910796596516157e+05
1.271659999999999968e+01 8.571452229311130941e+05
1.275830000000000020e+01 8.542417615028171567e+05
1.280000000000000071e+01 8.491188708578376099e+05
1.284169999999999945e+01 8.428964831816375954e+05
1.288339999999999996e+01 8.355744893034145935e+05
1.292510000000000048e+01 8.293839141142078442e+05
1.296679999999999922e+01 8.248157786356678698e+05
1.300849999999999973e+01 8.223370256288226228e+05
1.305020000000000024e+01 8.229616481711203232e+05
1.309190000000000076e+01 8.249105359600202646e+05
1.313359999999999950e+01 8.262252963518878678e+05
1.317530000000000001e+01 8.282133941031147260e+05
1.321700000000000053e+01 8.306025863953443477e+05
1.325859999999999950e+01 8.310987151735033840e+05
1.330030000000000001e+01 8.290706418692002771e+05
1.334200000000000053e+01 8.263806778264414752e+05
1.338369999999999926e+01 8.254674687769063748e+05
1.342539999999999978e+01 8.276699036253336817e+05
1.346710000000000029e+01 8.332592939350848319e+05
1.350880000000000081e+01 8.424347566062487895e+05
1.355049999999999955e+01 8.560682207275835099e+05
1.359220000000000006e+01 8.760697919812764740e+05
1.363390000000000057e+01 9.008261943570403382e+05
1.367559999999999931e+01 9.275562841505762190e+05
1.371729999999999983e+01 9.532160386014556279e+05
1.375900000000000034e+01 9.724084216702478006e+05
1.380070000000000086e+01 9.861530810027372791e+05
1.384239999999999959e+01 9.995389479699786752e+05
1.388410000000000011e+01 1.016121941489633755e+06
1.392570000000000086e+01 1.032958335117889917e+06
1.396739999999999959e+01 1.047392234034473542e+06
1.400910000000000011e+01 1.059204059725143015e+06
1.405080000000000062e+01 1.065670166871669469e+06
1.409249999999999936e+01 1.064495737518687034e+06
1.413419999999999987e+01 1.055321501096570166e+06
1.417590000000000039e+01 1.041828082336947788e+06
1.421759999999999913e+01 1.030213116313687176e+06
1.425929999999999964e+01 1.023068943999837153e+06
1.430100000000000016e+01 1.018715565536391223e+06
1.434270000000000067e+01 1.016618151123469579e+06
1.438439999999999941e+01 1.019358833090678207e+06
1.442609999999999992e+01 1.028957010486563668e+06
1.446780000000000044e+01 1.042957383275853354e+06
1.450949999999999918e+01 1.053348017841439927e+06
1.455119999999999969e+01 1.055253728276863229e+06
1.459280000000000044e+01 1.051599711372022517e+06
1.463449999999999918e+01 1.046896043176767649e+06
1.467619999999999969e+01 1.039066044592491817e+06
1.471790000000000020e+01 1.024671668607111089e+06
1.475960000000000072e+01 1.006403110615281737e+06
1.480129999999999946e+01 9.901993737735904288e+05
1.484299999999999997e+01 9.808699066613008035e+05
1.488470000000000049e+01 9.792058651199005544e+05
1.492639999999999922e+01 9.812182518055721885e+05
1.496809999999999974e+01 9.827988085912291426e+05
1.500980000000000025e+01 9.832247666601123055e+05
1.505150000000000077e+01 9.834469633537008194e+05
1.509319999999999951e+01 9.830763337185357232e+05
1.513490000000000002e+01 9.807883094063809840e+05
1.517660000000000053e+01 9.769079385672019562e+05
1.521829999999999927e+01 9.736475948597682873e+05
1.525990000000000002e+01 9.726335844271027017e+05
1.530160000000000053e+01 9.743123275676483754e+05
1.534329999999999927e+01 9.795322745486282511e+05
1.538499999999999979e+01 9.877628612144276267e+05
1.542670000000000030e+01 9.950429627958113560e+05
1.546840000000000082e+01 9.978316022608076455e+05
1.551009999999999955e+01 9.968951589717258466e+05
1.555180000000000007e+01 9.963323862942571286e+05
1.559350000000000058e+01 9.986621520475852303e+05
1.563519999999999932e+01 1.002983343082304462e+06
1.567689999999999984e+01 1.008182598463713308e+06
1.571860000000000035e+01 1.011952913600114756e+06
1.576030000000000086e+01 1.012566131686316337e+06
1.580199999999999960e+01 1.011127561520550051e+06
1.584370000000000012e+01 1.008076071306448663e+06
1.588540000000000063e+01 1.003582601141654304e+06
1.592709999999999937e+01 9.972973678359729238e+05
1.596870000000000012e+01 9.889292500744969584e+05
1.601040000000000063e+01 9.786357258822325384e+05
1.605209999999999937e+01 9.660746302643284434e+05
1.609380000000000166e+01 9.520946770280019846e+05
1.613550000000000040e+01 9.382881427060888382e+05
1.617719999999999914e+01 9.270271756340394495e+05
1.621890000000000143e+01 9.190086624677455984e+05
1.626060000000000016e+01 9.143080103277794551e+05
1.630229999999999890e+01 9.119764659705543891e+05
1.634400000000000119e+01 9.089347142314722296e+05
1.638569999999999993e+01 9.048803066128793871e+05
1.642739999999999867e+01 9.011222607389729237e+05
1.646910000000000096e+01 8.960564656043014256e+05
1.651079999999999970e+01 8.906687691416903399e+05
1.655249999999999844e+01 8.888766570518073859e+05
1.659420000000000073e+01 8.905784637171876384e+05
