# energy(eV) alpha
0.000000000000000000e+00 0.000000000000000000e+00
4.359999999999999987e-02 6.653722333521079335e-01
8.719999999999999973e-02 2.817887921284320196e+00
1.307999999999999996e-01 6.222279359974959512e+00
1.743999999999999995e-01 1.095613253910324225e+01
2.179999999999999993e-01 1.721402609822478169e+01
2.616999999999999882e-01 2.488668780309456352e+01
3.053000000000000158e-01 3.368102610368403305e+01
3.488999999999999879e-01 4.442468592445719366e+01
3.925000000000000155e-01 5.594190475599147305e+01
4.360999999999999877e-01 6.956003964037844867e+01
4.797000000000000153e-01 8.378978483483862760e+01
5.232999999999999874e-01 1.007383510058948843e+02
5.668999999999999595e-01 1.187213204137893001e+02
6.105000000000000426e-01 1.381647626226256591e+02
6.541000000000000147e-01 1.596491425667963711e+02
6.977999999999999758e-01 1.820632502792665832e+02
7.413999999999999480e-01 2.065620126944758397e+02
7.850000000000000311e-01 2.325787251170486911e+02
8.286000000000000032e-01 2.608428933492630790e+02
8.721999999999999753e-01 2.899103431531211754e+02
9.157999999999999474e-01 3.229240728882828648e+02
9.594000000000000306e-01 3.559463913388750598e+02
1.002999999999999892e+00 3.914182226483318345e+02
1.046599999999999975e+00 4.294431482859093308e+02
1.090200000000000058e+00 4.701230390533316381e+02
1.133799999999999919e+00 5.125599596311432151e+02
1.177499999999999991e+00 5.567832501820832931e+02
1.221100000000000074e+00 6.037762763425923822e+02
1.264699999999999935e+00 6.547905724354084214e+02
1.308300000000000018e+00 7.077351171810540791e+02
1.351900000000000102e+00 7.625892521176965602e+02
1.395499999999999963e+00 8.205657302366298609e+02
1.439100000000000046e+00 8.817545249680549659e+02
1.482699999999999907e+00 9.462515611468063526e+02
1.526299999999999990e+00 1.014138720478693813e+03
1.569900000000000073e+00 1.086872820108181486e+03
1.613599999999999923e+00 1.161909090094245130e+03
1.657200000000000006e+00 1.243410019523146048e+03
1.700800000000000090e+00 1.327289566060538846e+03
1.744399999999999951e+00 1.416552250395958936e+03
1.788000000000000034e+00 1.509820804682655080e+03
1.831599999999999895e+00 1.608753705178658038e+03
1.875199999999999978e+00 1.715145625952313594e+03
1.918800000000000061e+00 1.824279481751409548e+03
1.962399999999999922e+00 1.944550967261209280e+03
2.005999999999999783e+00 2.069537306263715891e+03
2.049599999999999866e+00 2.199271254019946809e+03
2.093300000000000161e+00 2.341039308940641149e+03
2.136899999999999800e+00 2.489607905049403598e+03
2.180499999999999883e+00 2.650747831530159146e+03
2.224099999999999966e+00 2.819173111355717992e+03
2.267700000000000049e+00 3.002678105715167476e+03
2.311300000000000132e+00 3.195839417083958779e+03
2.354900000000000215e+00 3.406742837485664040e+03
2.398499999999999854e+00 3.631867646252172563e+03
2.442099999999999937e+00 3.877584048218432144e+03
2.485700000000000021e+00 4.140297749472684700e+03
2.529300000000000104e+00 4.428694422932924681e+03
2.572999999999999954e+00 4.741442835872399883e+03
2.616600000000000037e+00 5.082933699066325062e+03
2.660200000000000120e+00 5.462612289616144153e+03
2.703800000000000203e+00 5.885637198360174807e+03
2.747399999999999842e+00 6.359523154386502029e+03
2.790999999999999925e+00 6.894142031285693520e+03
2.834600000000000009e+00 7.506394207789402572e+03
2.878200000000000092e+00 8.220480209161763923e+03
2.921800000000000175e+00 9.072625837159013827e+03
2.965399999999999814e+00 1.012095011639951917e+04
3.009100000000000108e+00 1.145808327073926193e+04
3.052700000000000191e+00 1.325440874401236579e+04
3.096299999999999830e+00 1.575260425867946833e+04
3.139899999999999913e+00 1.906779660818259435e+04
3.183499999999999996e+00 2.232625444041316587e+04
3.227100000000000080e+00 2.438886042404412001e+04
3.270700000000000163e+00 2.660512172439089045e+04
3.314299999999999802e+00 3.078043432553697858e+04
3.357899999999999885e+00 3.729999806016962975e+04
3.401499999999999968e+00 4.471153845028221986e+04
3.445100000000000051e+00 5.082012222283224401e+04
3.488799999999999901e+00 5.644152832892857259e+04
3.532399999999999984e+00 6.561030653010951937e+04
3.576000000000000068e+00 7.908518487061957421e+04
3.619600000000000151e+00 9.296670325868806685e+04
3.663199999999999790e+00 1.043785097317664477e+05
3.706799999999999873e+00 1.152772195012186421e+05
3.750399999999999956e+00 1.261581547934924020e+05
3.794000000000000039e+00 1.368555723779449763e+05
3.837600000000000122e+00 1.492396958440114395e+05
3.881200000000000205e+00 1.651256114838288049e+05
3.924900000000000055e+00 1.820981751263572660e+05
3.968500000000000139e+00 1.946586615684059507e+05
4.012100000000000222e+00 2.042167981873748067e+05
4.055699999999999861e+00 2.141113757980950468e+05
4.099300000000000388e+00 2.260475467776048172e+05
4.142900000000000027e+00 2.414032482866542123e+05
4.186499999999999666e+00 2.609106483721732511e+05
4.230100000000000193e+00 2.819143995321042021e+05
4.273699999999999832e+00 3.016799408634008723e+05
4.317300000000000360e+00 3.213642377358503290e+05
4.360899999999999999e+00 3.417442631209582905e+05
4.404600000000000293e+00 3.629408835464490694e+05
4.448199999999999932e+00 3.840642186089322204e+05
4.491799999999999571e+00 4.008984615211961791e+05
4.535400000000000098e+00 4.072210053650233313e+05
4.578999999999999737e+00 3.981143614862008253e+05
4.622600000000000264e+00 3.793479696745443507e+05
4.666199999999999903e+00 3.619492616948091309e+05
4.709800000000000431e+00 3.519534373730562511e+05
4.753400000000000070e+00 3.495639739510106738e+05
4.796999999999999709e+00 3.520042740364617202e+05
4.840700000000000003e+00 3.588133405724392505e+05
4.884299999999999642e+00 3.697602868465253850e+05
4.927900000000000169e+00 3.839882951755988761e+05
4.971499999999999808e+00 4.010077635411947267e+05
5.015100000000000335e+00 4.211796102009975584e+05
5.058699999999999974e+00 4.441752898026659968e+05
5.102299999999999613e+00 4.692590352912289673e+05
5.145900000000000141e+00 4.962981481722063036e+05
5.189499999999999780e+00 5.204196617069665808e+05
5.233100000000000307e+00 5.343673989047999494e+05
5.276699999999999946e+00 5.394021204254798358e+05
5.320400000000000240e+00 5.391045324873832287e+05
5.363999999999999879e+00 5.377923540498518851e+05
5.407600000000000406e+00 5.378743829176764702e+05
5.451200000000000045e+00 5.389613236606064020e+05
5.494799999999999685e+00 5.393778999239539262e+05
5.538400000000000212e+00 5.382011442250165856e+05
5.581999999999999851e+00 5.387686752622168278e+05
5.625600000000000378e+00 5.407192005099011585e+05
5.669200000000000017e+00 5.384735161515546497e+05
5.712799999999999656e+00 5.280119765672005014e+05
5.756400000000000183e+00 5.114035397750044358e+05
5.800099999999999589e+00 4.932348477249403368e+05
5.843700000000000117e+00 4.779846039616341004e+05
5.887299999999999756e+00 4.692126719647237915e+05
5.930900000000000283e+00 4.661945769286544528e+05
5.974499999999999922e+00 4.655879647441778798e+05
6.018099999999999561e+00 4.653872520121915732e+05
6.061700000000000088e+00 4.653994254553306964e+05
6.105299999999999727e+00 4.671685190847543417e+05
6.148900000000000254e+00 4.702602932066089706e+05
6.192499999999999893e+00 4.728270703481177334e+05
6.236200000000000188e+00 4.767612823376641609e+05
6.279799999999999827e+00 4.838545639388960553e+05
6.323400000000000354e+00 4.919548437961686868e+05
6.366999999999999993e+00 4.966138386255834484e+05
6.410599999999999632e+00 4.965998133593214443e+05
6.454200000000000159e+00 4.931621787278482225e+05
6.497799999999999798e+00 4.895979943457010668e+05
6.541400000000000325e+00 4.893379953230163665e+05
6.584999999999999964e+00 4.931138062801890192e+05
6.628599999999999604e+00 4.982224776766583091e+05
6.672200000000000131e+00 5.018607450965346652e+05
6.715900000000000425e+00 5.048707205839366652e+05
6.759500000000000064e+00 5.069163531724294298e+05
6.803099999999999703e+00 5.075411208372745896e+05
6.846700000000000230e+00 5.080621933728369768e+05
6.890299999999999869e+00 5.090844101528612664e+05
6.933900000000000396e+00 5.109265927904426935e+05
6.977500000000000036e+00 5.138031662735574646e+05
7.021099999999999675e+00 5.187680311828349950e+05
7.064700000000000202e+00 5.275134018893453758e+05
7.108299999999999841e+00 5.401311876817422453e+05
7.152000000000000135e+00 5.564037206148884725e+05
7.195599999999999774e+00 5.746289032522690250e+05
7.239200000000000301e+00 5.920132355453381315e+05
7.282799999999999940e+00 6.061427406729561044e+05
7.326399999999999579e+00 6.166871049985080026e+05
7.370000000000000107e+00 6.236051073980081128e+05
7.413599999999999746e+00 6.261411316484718118e+05
7.457200000000000273e+00 6.259224924433442065e+05
7.500799999999999912e+00 6.259524324661478167e+05
7.544400000000000439e+00 6.277711980547584826e+05
7.588000000000000078e+00 6.321512997598383809e+05
7.631700000000000372e+00 6.374095361966131022e+05
7.675300000000000011e+00 6.402656112708324799e+05
7.718899999999999650e+00 6.413275416785788257e+05
7.762500000000000178e+00 6.424950506798193092e+05
7.806099999999999817e+00 6.445817824900380801e+05
7.849700000000000344e+00 6.456480336999989813e+05
7.893299999999999983e+00 6.432196799622746184e+05
7.936899999999999622e+00 6.402499684210686246e+05
7.980500000000000149e+00 6.391583272656938061e+05
8.024100000000000676e+00 6.404192157041013706e+05
8.067800000000000082e+00 6.446306487753454130e+05
8.111399999999999721e+00 6.506216264191512018e+05
8.154999999999999361e+00 6.568131870421004714e+05
8.198600000000000776e+00 6.621576393288171384e+05
8.242200000000000415e+00 6.669479746237623040e+05
8.285800000000000054e+00 6.714803704417059198e+05
8.329399999999999693e+00 6.762128939456423977e+05
8.372999999999999332e+00 6.828488151619826676e+05
8.416600000000000747e+00 6.911640648531509796e+05
8.460200000000000387e+00 6.999679781451298622e+05
8.503800000000000026e+00 7.088097827039454132e+05
8.547499999999999432e+00 7.183999614444101462e+05
8.591100000000000847e+00 7.297775007424067007e+05
8.634700000000000486e+00 7.421865337615616154e+05
8.678300000000000125e+00 7.533556581197117921e+05
8.721899999999999764e+00 7.611055510326374788e+05
8.765499999999999403e+00 7.652720201855485793e+05
8.809100000000000819e+00 7.688028078510506311e+05
8.852700000000000458e+00 7.732856303817629814e+05
8.896300000000000097e+00 7.792221951863183640e+05
8.939899999999999736e+00 7.865123508737387601e+05
8.983499999999999375e+00 7.922932369689668994e+05
9.027200000000000557e+00 7.929931328551478218e+05
9.070800000000000196e+00 7.892750689401674317e+05
9.114399999999999835e+00 7.841824109481933992e+05
9.157999999999999474e+00 7.798323467468669405e+05
9.201599999999999113e+00 7.769353255339033203e+05
9.245200000000000529e+00 7.754809266589407343e+05
9.288800000000000168e+00 7.763159304318611976e+05
9.332399999999999807e+00 7.796614368917375105e+05
9.375999999999999446e+00 7.863308792947366601e+05
9.419600000000000861e+00 7.968961643698038533e+05
9.463300000000000267e+00 8.088122923494057031e+05
9.506899999999999906e+00 8.197335004716685507e+05
9.550499999999999545e+00 8.276116441006638343e+05
9.594099999999999184e+00 8.334031457735780859e+05
9.637700000000000600e+00 8.404161996133897919e+05
9.681300000000000239e+00 8.481841571528075729e+05
9.724899999999999878e+00 8.549075983320171945e+05
9.768499999999999517e+00 8.612904398681350285e+05
9.812099999999999156e+00 8.688130813719819998e+05
9.855700000000000571e+00 8.766199708429886959e+05
9.899300000000000210e+00 8.836005529195328709e+05
9.942999999999999616e+00 8.887794575713750673e+05
9.986599999999999255e+00 8.914415518703087000e+05
1.003020000000000067e+01 8.934885189617153956e+05
1.007380000000000031e+01 8.956109604678750038e+05
1.011739999999999995e+01 8.968287631993491668e+05
1.016099999999999959e+01 8.967761800629287027e+05
1.020459999999999923e+01 8.958024107797369361e+05
1.024820000000000064e+01 8.946861945725188125e+05
1.029180000000000028e+01 8.952892396414385876e+05
1.033539999999999992e+01 8.977288126101447269e+05
1.037909999999999933e+01 9.003326993970621843e+05
1.042270000000000074e+01 9.037954085651526693e+05
1.046630000000000038e+01 9.100147147009436740e+05
1.050990000000000002e+01 9.178263072585908230e+05
1.055349999999999966e+01 9.251058541709949495e+05
1.059709999999999930e+01 9.324577091848278651e+05
1.064070000000000071e+01 9.404926941534421640e+05
1.068430000000000035e+01 9.460870774612199748e+05
1.072789999999999999e+01 9.464978331172373146e+05
1.077149999999999963e+01 9.430500666327931685e+05
1.081509999999999927e+01 9.405143523135669529e+05
1.085880000000000045e+01 9.414426214050702984e+05
1.090240000000000009e+01 9.423322608751512598e+05
1.094599999999999973e+01 9.438489343353139702e+05
1.098959999999999937e+01 9.487664827731490368e+05
1.103320000000000078e+01 9.543032926384502789e+05
1.107680000000000042e+01 9.580101065469146706e+05
1.112040000000000006e+01 9.593236476155015407e+05
1.116399999999999970e+01 9.580286592488427414e+05
1.120759999999999934e+01 9.565249320541474735e+05
1.125120000000000076e+01 9.556591319815039169e+05
1.129490000000000016e+01 9.542689693070973735e+05
1.133849999999999980e+01 9.502537902214191854e+05
1.138209999999999944e+01 9.430509279269868275e+05
1.142570000000000086e+01 9.354227538933465257e+05
1.146930000000000049e+01 9.291267195845168317e+05
1.151290000000000013e+01 9.232633114980539540e+05
1.155649999999999977e+01 9.181230047981905518e+05
1.160009999999999941e+01 9.142629934033690952e+05
1.164370000000000083e+01 9.112097442632503808e+05
1.168730000000000047e+01 9.097240968952383846e+05
1.173090000000000011e+01 9.090307983653316041e+05
1.177459999999999951e+01 9.060164762138440274e+05
1.181819999999999915e+01 8.995087342416241299e+05
1.186180000000000057e+01 8.917647330353254220e+05
1.190540000000000020e+01 8.864557442881554598e+05
1.194899999999999984e+01 8.847912181048054481e+05
1.199259999999999948e+01 8.868317823158017127e+05
1.203619999999999912e+01 8.920454589419168187e+05
1.207980000000000054e+01 8.978634596307375468e+05
1.212340000000000018e+01 9.020563283819161588e+05
1.216699999999999982e+01 9.062145082150956150e+05
1.221059999999999945e+01 9.114041437381911092e+05
1.225430000000000064e+01 9.142377516061873175e+05
1.229790000000000028e+01 9.133719182088099187e+05
1.234149999999999991e+01 9.092243806788770016e+05
1.238509999999999955e+01 9.021100296182004968e+05
1.242869999999999919e+01 8.942206759642738616e+05
1.247230000000000061e+01 8.893948582305428572e+05
1.251590000000000025e+01 8.883787219625932630e+05
1.255949999999999989e+01 8.899463805218273774e+05
1.260309999999999953e+01 8.927634053232441656e+05
1.264669999999999916e+01 8.985849573016787181e+05
1.269040000000000035e+01 9.098012261158558540e+05
1.273399999999999999e+01 9.240565951536573702e+05
1.277759999999999962e+01 9.367092319704010151e+05
1.282119999999999926e+01 9.443826869964221260e+05
1.286480000000000068e+01 9.475515525162004633e+05
1.290840000000000032e+01 9.518524716773511609e+05
1.295199999999999996e+01 9.593710507473698817e+05
1.299559999999999960e+01 9.666014664765199414e+05
1.303919999999999924e+01 9.737369351747379405e+05
1.308280000000000065e+01 9.804516590304953279e+05
1.312640000000000029e+01 9.831619796860859497e+05
1.317009999999999970e+01 9.801037677448790055e+05
1.321369999999999933e+01 9.701438050901624374e+05
1.325730000000000075e+01 9.565083857133936835e+05
1.330090000000000039e+01 9.459694961500292411e+05
1.334450000000000003e+01 9.424120900525166653e+05
1.338809999999999967e+01 9.424685137386166025e+05
1.343169999999999931e+01 9.407693997965023154e+05
1.347530000000000072e+01 9.348263718712737318e+05
1.351890000000000036e+01 9.259277453626301140e+05
1.356250000000000000e+01 9.179636668352183187e+05
1.360619999999999941e+01 9.125508965682133567e+05
1.364980000000000082e+01 9.101921585919471690e+05
1.369340000000000046e+01 9.123038223010967486e+05
1.373700000000000010e+01 9.212841992407384096e+05
1.378059999999999974e+01 9.362740989362086402e+05
1.382419999999999938e+01 9.532758273769558873e+05
1.386780000000000079e+01 9.683238215259487042e+05
1.391140000000000043e+01 9.804924635737687349e+05
1.395500000000000007e+01 9.910239050865244353e+05
1.399859999999999971e+01 1.001787822992623202e+06
1.404219999999999935e+01 1.015529059110313188e+06
1.408590000000000053e+01 1.034390659904270316e+06
1.412950000000000017e+01 1.055735848714899737e+06
1.417309999999999981e+01 1.074117978349189973e+06
1.421669999999999945e+01 1.087730886954888236e+06
1.426030000000000086e+01 1.098254318238778738e+06
1.430390000000000050e+01 1.108863659817935899e+06
1.434750000000000014e+01 1.119225512388436357e+06
1.439109999999999978e+01 1.124047194505528314e+06
1.443469999999999942e+01 1.121247737458716612e+06
1.447830000000000084e+01 1.113780901413911954e+06
1.452200000000000024e+01 1.106201679100260604e+06
1.456559999999999988e+01 1.100615983250716468e+06
1.460919999999999952e+01 1.096311691632398637e+06
1.465279999999999916e+01 1.091982123677676078e+06
1.469640000000000057e+01 1.089302556427418487e+06
1.474000000000000021e+01 1.087183468780906871e+06
1.478359999999999985e+01 1.083393290376047138e+06
1.482719999999999949e+01 1.079576181213538162e+06
1.487079999999999913e+01 1.077447091121128527e+06
1.491440000000000055e+01 1.075235672762828646e+06
1.495800000000000018e+01 1.072280493963625515e+06
1.500169999999999959e+01 1.070283285665804520e+06
1.504529999999999923e+01 1.071821907417788403e+06
1.508890000000000065e+01 1.077649606892615091e+06
1.513250000000000028e+01 1.084980178582583088e+06
1.517609999999999992e+01 1.092055673437367659e+06
1.521969999999999956e+01 1.098035656717352802e+06
1.526329999999999920e+01 1.103032878633518936e+06
1.530690000000000062e+01 1.109805140416262206e+06
1.535050000000000026e+01 1.116300762252386659e+06
1.539409999999999989e+01 1.118114669904342853e+06
1.543769999999999953e+01 1.116473049986780155e+06
1.548140000000000072e+01 1.113203655705487821e+06
1.552500000000000036e+01 1.105984810119339032e+06
1.556859999999999999e+01 1.097034654187510721e+06
1.561219999999999963e+01 1.089824697590960655e+06
1.565579999999999927e+01 1.087272345143058104e+06
1.569940000000000069e+01 1.090901613959975308e+06
1.574300000000000033e+01 1.097811100065845065e+06
1.578659999999999997e+01 1.104300010465416592e+06
1.583019999999999960e+01 1.109246906584535958e+06
1.587379999999999924e+01 1.113681575436027953e+06
1.591750000000000043e+01 1.118962358294262784e+06
1.596110000000000007e+01 1.126052420868867775e+06
1.600469999999999970e+01 1.133996468708526809e+06
1.604830000000000112e+01 1.141319819100141758e+06
1.609189999999999898e+01 1.147026029152934905e+06
1.613550000000000040e+01 1.152001409390294924e+06
1.617909999999999826e+01 1.159318989718265599e+06
1.622269999999999968e+01 1.172134768879983108e+06
1.626630000000000109e+01 1.189221544959799852e+06
1.630989999999999895e+01 1.207865753252145834e+06
1.635350000000000037e+01 1.228963778395791305e+06
1.639720000000000155e+01 1.254979742398556788e+06
1.644079999999999941e+01 1.285751772448141128e+06
1.648440000000000083e+01 1.314742050674971426e+06
1.652799999999999869e+01 1.335305699238571804e+06
1.657160000000000011e+01 1.343417077509589260e+06
1.661520000000000152e+01 1.338365114759209333e+06
1.665879999999999939e+01 1.321183387110915501e+06
1.670240000000000080e+01 1.296198998157056281e+06
1.674599999999999866e+01 1.268692906220545759e+06
1.678960000000000008e+01 1.242071274209558731e+06
1.683330000000000126e+01 1.218484228035332635e+06
1.687689999999999912e+01 1.199082391585709760e+06
1.692050000000000054e+01 1.184562942645904142e+06
1.696409999999999840e+01 1.176988985288903816e+06
1.700769999999999982e+01 1.176470677065168507e+06
1.705130000000000123e+01 1.178433087998207193e+06
1.709489999999999910e+01 1.179145602701675380e+06
1.713850000000000051e+01 1.177982674671652494e+06
1.718209999999999837e+01 1.173221880657177186e+06
1.722569999999999979e+01 1.163907053530305391e+06
1.726930000000000121e+01 1.152035569709012751e+06
1.731299999999999883e+01 1.138984585696757538e+06
1.735660000000000025e+01 1.125052997688839678e+06
