# energy(eV) alpha
0.000000000000000000e+00 0.000000000000000000e+00
4.399999999999999745e-02 7.095239604289269586e-01
8.799999999999999489e-02 2.837936179501824085e+00
1.320000000000000062e-01 6.384787725569021077e+00
1.759999999999999898e-01 1.119166842729919509e+01
2.199000000000000121e-01 1.772231046934315657e+01
2.639000000000000234e-01 2.528077258430437269e+01
3.079000000000000070e-01 3.444935974090059005e+01
3.518999999999999906e-01 4.534436447478147159e+01
3.958999999999999742e-01 5.701864238297947907e+01
4.399000000000000132e-01 7.080757928708401039e+01
4.838999999999999968e-01 8.607829423766172283e+01
5.279000000000000359e-01 1.028268858504468284e+02
5.718999999999999639e-01 1.210499221313982190e+02
6.159000000000000030e-01 1.407433230303219602e+02
6.598000000000000531e-01 1.624660517037416128e+02
7.037999999999999812e-01 1.857504728473845717e+02
7.478000000000000203e-01 2.105665426983360362e+02
7.917999999999999483e-01 2.376141614520445842e+02
8.357999999999999874e-01 2.662592591906434336e+02
8.798000000000000265e-01 2.972772404222374689e+02
9.237999999999999545e-01 3.299539681300214511e+02
9.677999999999999936e-01 3.642844275744303104e+02
1.011800000000000033e+00 4.020483137984458040e+02
1.055700000000000083e+00 4.406219791625652533e+02
1.099699999999999900e+00 4.819058353139009228e+02
1.143699999999999939e+00 5.259630599940944649e+02
1.187699999999999978e+00 5.718487202734082757e+02
1.231700000000000017e+00 6.206294082857923513e+02
1.275700000000000056e+00 6.724125583434531563e+02
1.319700000000000095e+00 7.284490935689269691e+02
1.363699999999999912e+00 7.853526602805834500e+02
1.407699999999999951e+00 8.466995814037767332e+02
1.451699999999999990e+00 9.114205176963899930e+02
1.495600000000000041e+00 9.782269344337267967e+02
1.539600000000000080e+00 1.049922608007229428e+03
1.583599999999999897e+00 1.126621820189534446e+03
1.627599999999999936e+00 1.205699282717740289e+03
1.671599999999999975e+00 1.291470986815467768e+03
1.715600000000000014e+00 1.381242819608921991e+03
1.759600000000000053e+00 1.475101104721232332e+03
1.803600000000000092e+00 1.576226852998305276e+03
1.847599999999999909e+00 1.683288461019386659e+03
1.891499999999999959e+00 1.796373025545585733e+03
1.935499999999999998e+00 1.915782082914076682e+03
1.979500000000000037e+00 2.043310377799586831e+03
2.023499999999999854e+00 2.179175740078296712e+03
2.067499999999999893e+00 2.325386039857363357e+03
2.111499999999999932e+00 2.480445702442969377e+03
2.155499999999999972e+00 2.646407851375643986e+03
2.199500000000000011e+00 2.823536335747534849e+03
2.243500000000000050e+00 3.015927549585838733e+03
2.287500000000000089e+00 3.218206898909363190e+03
2.331399999999999917e+00 3.440168569205659878e+03
2.375399999999999956e+00 3.680678954874923420e+03
2.419399999999999995e+00 3.940039695752286207e+03
2.463400000000000034e+00 4.220724150657262726e+03
2.507400000000000073e+00 4.531410784991236142e+03
2.551400000000000112e+00 4.868691244580690181e+03
2.595400000000000151e+00 5.243673519275792387e+03
2.639400000000000190e+00 5.652790702585482904e+03
2.683399999999999785e+00 6.116286926710694388e+03
2.727300000000000058e+00 6.628312386136886744e+03
2.771300000000000097e+00 7.207892081422890442e+03
2.815300000000000136e+00 7.869214259769652926e+03
2.859300000000000175e+00 8.631687193738582209e+03
2.903300000000000214e+00 9.514638212586089139e+03
2.947299999999999809e+00 1.055618255372804924e+04
2.991299999999999848e+00 1.180626173231592293e+04
3.035299999999999887e+00 1.334080647883284837e+04
3.079299999999999926e+00 1.526633769556862717e+04
3.123299999999999965e+00 1.777202577832351744e+04
3.167199999999999793e+00 2.116042216760567680e+04
3.211199999999999832e+00 2.593136343066193513e+04
3.255199999999999871e+00 3.267402787897746748e+04
3.299199999999999910e+00 4.144872879817978537e+04
3.343199999999999950e+00 5.225516948634755681e+04
3.387199999999999989e+00 6.640274129405636631e+04
3.431200000000000028e+00 8.408100581533763034e+04
3.475200000000000067e+00 1.037850913880137523e+05
3.519200000000000106e+00 1.217757607182683860e+05
3.563099999999999934e+00 1.331017744586928748e+05
3.607099999999999973e+00 1.357031637998047518e+05
3.651100000000000012e+00 1.358899925942235277e+05
3.695100000000000051e+00 1.416195007301717706e+05
3.739100000000000090e+00 1.561756945716938353e+05
3.783100000000000129e+00 1.774879087333589268e+05
3.827100000000000168e+00 2.027184079016096948e+05
3.871100000000000207e+00 2.293412744251631666e+05
3.915099999999999802e+00 2.455429263800346816e+05
3.959099999999999842e+00 2.458928147773479868e+05
4.003000000000000114e+00 2.357815830658790946e+05
4.046999999999999709e+00 2.274394452750841156e+05
4.091000000000000192e+00 2.286785152872073813e+05
4.134999999999999787e+00 2.371151523810600920e+05
4.179000000000000270e+00 2.489253184902501525e+05
4.222999999999999865e+00 2.616851776397465728e+05
4.267000000000000348e+00 2.744971595969733899e+05
4.310999999999999943e+00 2.855172928738973569e+05
4.355000000000000426e+00 2.915722827947041951e+05
4.398900000000000254e+00 2.881283939491357887e+05
4.442899999999999849e+00 2.797765336945721647e+05
4.486900000000000333e+00 2.737802904095780686e+05
4.530899999999999928e+00 2.708989737920212210e+05
4.574900000000000411e+00 2.696959847686280264e+05
4.618900000000000006e+00 2.682088917875686311e+05
4.662899999999999601e+00 2.644815840436358703e+05
4.706900000000000084e+00 2.580069878290419874e+05
4.750899999999999679e+00 2.522608198700928479e+05
4.794900000000000162e+00 2.499032692008652084e+05
4.838799999999999990e+00 2.528877816113616573e+05
4.882799999999999585e+00 2.625428501202542684e+05
4.926800000000000068e+00 2.797954916280664620e+05
4.970799999999999663e+00 3.043484609938648064e+05
5.014800000000000146e+00 3.343755815170099959e+05
5.058799999999999741e+00 3.691754308941192576e+05
5.102800000000000225e+00 4.041572158988974988e+05
5.146799999999999820e+00 4.311009278229828924e+05
5.190800000000000303e+00 4.481330104844159214e+05
5.234700000000000131e+00 4.590205431232535630e+05
5.278699999999999726e+00 4.671129598087470513e+05
5.322700000000000209e+00 4.722068540758630261e+05
5.366699999999999804e+00 4.770605097225069185e+05
5.410700000000000287e+00 4.825339738559982507e+05
5.454699999999999882e+00 4.856493803738173447e+05
5.498700000000000365e+00 4.882959612527897116e+05
5.542699999999999960e+00 4.932423014272125438e+05
5.586700000000000443e+00 4.999276093173247646e+05
5.630700000000000038e+00 5.044113548382478184e+05
5.674599999999999866e+00 5.016399484767846880e+05
5.718600000000000350e+00 4.955672658886528807e+05
5.762599999999999945e+00 4.937573230196526274e+05
5.806600000000000428e+00 4.943730492722076015e+05
5.850600000000000023e+00 4.923435715685343021e+05
5.894599999999999618e+00 4.885553919288183097e+05
5.938600000000000101e+00 4.841416501287770225e+05
5.982599999999999696e+00 4.772666774829428177e+05
6.026600000000000179e+00 4.701883189374649664e+05
6.070599999999999774e+00 4.669370725951270433e+05
6.114499999999999602e+00 4.662581353224431514e+05
6.158500000000000085e+00 4.642448059218454873e+05
6.202499999999999680e+00 4.603291427030554041e+05
6.246500000000000163e+00 4.582755801027276902e+05
6.290499999999999758e+00 4.594022509667498525e+05
6.334500000000000242e+00 4.611863211228209548e+05
6.378499999999999837e+00 4.604083378252875409e+05
6.422500000000000320e+00 4.571999846720992937e+05
6.466499999999999915e+00 4.533435099360655877e+05
6.510399999999999743e+00 4.502044917400719132e+05
6.554400000000000226e+00 4.503219378350367188e+05
6.598399999999999821e+00 4.544127977806621348e+05
6.642400000000000304e+00 4.603159340103589348e+05
6.686399999999999899e+00 4.645650781180152553e+05
6.730400000000000382e+00 4.657114884035555297e+05
6.774399999999999977e+00 4.657369472776019829e+05
6.818399999999999572e+00 4.664706725772021455e+05
6.862400000000000055e+00 4.691749384065214545e+05
6.906399999999999650e+00 4.747498926159256371e+05
6.950300000000000367e+00 4.816959799989936291e+05
6.994299999999999962e+00 4.892938038839086657e+05
7.038299999999999557e+00 4.991828088272166788e+05
7.082300000000000040e+00 5.111898215003068908e+05
7.126299999999999635e+00 5.257086312493751757e+05
7.170300000000000118e+00 5.427690529316765023e+05
7.214299999999999713e+00 5.604391919806919759e+05
7.258300000000000196e+00 5.800927427855265560e+05
7.302299999999999791e+00 6.035266534391227178e+05
7.346199999999999619e+00 6.287722693379981210e+05
7.390200000000000102e+00 6.528773708306850167e+05
7.434199999999999697e+00 6.751885960472595179e+05
7.478200000000000180e+00 6.934243489062483422e+05
7.522199999999999775e+00 7.057442774434005842e+05
7.566200000000000259e+00 7.097459539235660341e+05
7.610199999999999854e+00 7.087597179300945718e+05
7.654200000000000337e+00 7.071097361030993052e+05
7.698199999999999932e+00 7.058759889809492743e+05
7.742200000000000415e+00 7.056340343551619444e+05
7.786100000000000243e+00 7.076308957231650129e+05
7.830099999999999838e+00 7.123768346844989574e+05
7.874100000000000321e+00 7.187856811044185888e+05
7.918099999999999916e+00 7.246509203953299439e+05
7.962100000000000399e+00 7.244684054474345176e+05
8.006099999999999994e+00 7.182114737934357254e+05
8.050100000000000477e+00 7.105150940467666369e+05
8.094099999999999184e+00 7.043163373866254697e+05
8.138099999999999667e+00 7.007838495277668117e+05
8.182000000000000384e+00 7.013168981285400223e+05
8.226000000000000867e+00 7.063670312400672119e+05
8.269999999999999574e+00 7.128186532281200634e+05
8.314000000000000057e+00 7.178208154783695936e+05
8.358000000000000540e+00 7.214878445715045091e+05
8.401999999999999247e+00 7.239403368376787985e+05
8.445999999999999730e+00 7.267221283383710543e+05
8.490000000000000213e+00 7.324335264915366424e+05
8.534000000000000696e+00 7.414968373706121929e+05
8.577999999999999403e+00 7.526034928996958770e+05
8.621900000000000119e+00 7.643836025658166036e+05
8.665900000000000603e+00 7.756175314046109561e+05
8.709899999999999309e+00 7.855736455046657939e+05
8.753899999999999793e+00 7.936365603923448361e+05
8.797900000000000276e+00 8.006513856136037502e+05
8.841900000000000759e+00 8.063634162502035033e+05
8.885899999999999466e+00 8.106096903105713427e+05
8.929899999999999949e+00 8.162007314997348003e+05
8.973900000000000432e+00 8.248875216312381672e+05
9.017799999999999372e+00 8.352993277236664435e+05
9.061799999999999855e+00 8.460603887162118917e+05
9.105800000000000338e+00 8.547446160120461136e+05
9.149800000000000821e+00 8.605551960462819552e+05
9.193799999999999528e+00 8.665398601290937513e+05
9.237800000000000011e+00 8.736117921114771161e+05
9.281800000000000495e+00 8.793729020686006406e+05
9.325799999999999201e+00 8.818381523223349359e+05
9.369799999999999685e+00 8.804988504497689428e+05
9.413800000000000168e+00 8.784357259034027811e+05
9.457700000000000884e+00 8.787726153629655018e+05
9.501699999999999591e+00 8.821279337440385716e+05
9.545700000000000074e+00 8.873158217785039451e+05
9.589700000000000557e+00 8.915163749705542577e+05
9.633699999999999264e+00 8.930398372047938174e+05
9.677699999999999747e+00 8.931782464620464016e+05
9.721700000000000230e+00 8.927761592989544151e+05
9.765700000000000713e+00 8.921080727060508216e+05
9.809699999999999420e+00 8.917680778579048347e+05
9.853600000000000136e+00 8.916788986291360343e+05
9.897600000000000620e+00 8.933416554265466984e+05
9.941599999999999326e+00 8.967286865046946332e+05
9.985599999999999810e+00 8.993849156914786436e+05
1.002960000000000029e+01 9.013613088363362476e+05
1.007360000000000078e+01 9.042154999350054422e+05
1.011759999999999948e+01 9.085429532075474272e+05
1.016159999999999997e+01 9.126092327363160439e+05
1.020560000000000045e+01 9.149608452237083111e+05
1.024959999999999916e+01 9.167004939130727435e+05
1.029349999999999987e+01 9.201425624802568927e+05
1.033750000000000036e+01 9.255998192118330626e+05
1.038150000000000084e+01 9.323408566331120674e+05
1.042549999999999955e+01 9.380012230109903030e+05
1.046950000000000003e+01 9.420107973328027874e+05
1.051350000000000051e+01 9.461151416890877299e+05
1.055749999999999922e+01 9.505165701704391977e+05
1.060149999999999970e+01 9.540599614665462868e+05
1.064550000000000018e+01 9.565636112405038439e+05
1.068939999999999912e+01 9.581614337896469515e+05
1.073339999999999961e+01 9.586715014127428876e+05
1.077740000000000009e+01 9.597872819637539797e+05
1.082140000000000057e+01 9.626723745720417937e+05
1.086539999999999928e+01 9.662388768388504395e+05
1.090939999999999976e+01 9.699635918053181376e+05
1.095340000000000025e+01 9.713980074838889996e+05
1.099740000000000073e+01 9.681724995869932463e+05
1.104139999999999944e+01 9.602817740911550354e+05
1.108539999999999992e+01 9.517289566375188297e+05
1.112930000000000064e+01 9.448823062610479537e+05
1.117329999999999934e+01 9.416430036642210325e+05
1.121729999999999983e+01 9.413131799154410837e+05
1.126130000000000031e+01 9.424062017347119981e+05
1.130530000000000079e+01 9.434003512952618767e+05
1.134929999999999950e+01 9.417430110496171983e+05
1.139329999999999998e+01 9.388139699140952434e+05
1.143730000000000047e+01 9.375154911895627156e+05
1.148129999999999917e+01 9.373896442256721202e+05
1.152519999999999989e+01 9.355894269364337670e+05
1.156920000000000037e+01 9.314441855128472671e+05
1.161320000000000086e+01 9.275420484482330503e+05
1.165719999999999956e+01 9.251434637470373418e+05
1.170120000000000005e+01 9.244324982980850618e+05
1.174520000000000053e+01 9.263644220585008152e+05
1.178919999999999924e+01 9.301523345477788243e+05
1.183319999999999972e+01 9.337654688517779578e+05
1.187720000000000020e+01 9.367730923033491708e+05
1.192120000000000068e+01 9.398611170772025362e+05
1.196509999999999962e+01 9.429354066882207990e+05
1.200910000000000011e+01 9.468085626831791596e+05
1.205310000000000059e+01 9.504599509807473514e+05
1.209709999999999930e+01 9.523137502029362367e+05
1.214109999999999978e+01 9.535789629220956704e+05
1.218510000000000026e+01 9.546233964181871852e+05
1.222910000000000075e+01 9.541152343606329523e+05
1.227309999999999945e+01 9.519194749806948239e+05
1.231709999999999994e+01 9.504070224895895226e+05
1.236100000000000065e+01 9.495574776254675817e+05
1.240499999999999936e+01 9.479366073922248324e+05
1.244899999999999984e+01 9.466437177898652153e+05
1.249300000000000033e+01 9.462171556449951604e+05
1.253700000000000081e+01 9.470125705356737599e+05
1.258099999999999952e+01 9.494856648583647329e+05
1.262500000000000000e+01 9.545658085059527075e+05
1.266900000000000048e+01 9.600718259985019686e+05
1.271299999999999919e+01 9.634656195016012061e+05
1.275699999999999967e+01 9.658304266843242804e+05
1.280090000000000039e+01 9.691038771780767711e+05
1.284490000000000087e+01 9.743611750734791858e+05
1.288889999999999958e+01 9.810946090652424609e+05
1.293290000000000006e+01 9.874919246106416686e+05
1.297690000000000055e+01 9.935899999854309717e+05
1.302089999999999925e+01 1.000635296130860341e+06
1.306489999999999974e+01 1.006523928205106407e+06
1.310890000000000022e+01 1.008190402584981988e+06
1.315290000000000070e+01 1.006300395278848708e+06
1.319679999999999964e+01 1.001658712470615050e+06
1.324080000000000013e+01 9.936455063315780135e+05
1.328480000000000061e+01 9.820802227427292382e+05
1.332879999999999932e+01 9.712921382967821555e+05
1.337279999999999980e+01 9.659787050984892994e+05
1.341680000000000028e+01 9.641970970943820430e+05
1.346080000000000076e+01 9.644145695878894767e+05
1.350479999999999947e+01 9.675942433934146538e+05
1.354879999999999995e+01 9.705743900732723996e+05
1.359280000000000044e+01 9.702363981511670863e+05
1.363669999999999938e+01 9.679652226911733160e+05
1.368069999999999986e+01 9.666679961734735407e+05
1.372470000000000034e+01 9.681719309572130442e+05
1.376870000000000083e+01 9.735862069057831541e+05
1.381269999999999953e+01 9.819722882164047332e+05
1.385670000000000002e+01 9.915392125944260042e+05
1.390070000000000050e+01 1.000921951786918798e+06
1.394469999999999921e+01 1.010313252429767628e+06
1.398869999999999969e+01 1.021385488725782838e+06
1.403260000000000041e+01 1.036982538738886476e+06
1.407659999999999911e+01 1.056205250574560370e+06
1.412059999999999960e+01 1.075154724857612979e+06
1.416460000000000008e+01 1.090248179582232377e+06
1.420860000000000056e+01 1.102549390217637643e+06
1.425259999999999927e+01 1.114605384058601456e+06
1.429659999999999975e+01 1.126170259537538979e+06
1.434060000000000024e+01 1.135258401932517998e+06
1.438460000000000072e+01 1.139285654366568429e+06
1.442859999999999943e+01 1.139368743305329932e+06
1.447250000000000014e+01 1.138888446963859489e+06
1.451650000000000063e+01 1.138552833680012496e+06
1.456049999999999933e+01 1.135518344411652302e+06
1.460449999999999982e+01 1.129351650363617577e+06
1.464850000000000030e+01 1.124529549679281190e+06
1.469250000000000078e+01 1.122889619063805556e+06
1.473649999999999949e+01 1.122310755942079239e+06
1.478049999999999997e+01 1.122408468596903142e+06
1.482450000000000045e+01 1.122526201723827515e+06
1.486839999999999939e+01 1.120450701269963989e+06
1.491239999999999988e+01 1.117040157006047899e+06
1.495640000000000036e+01 1.114540065861225594e+06
1.500040000000000084e+01 1.112941470246363897e+06
1.504439999999999955e+01 1.109501134779813467e+06
1.508840000000000003e+01 1.104106085193670122e+06
1.513240000000000052e+01 1.099486498542133020e+06
1.517639999999999922e+01 1.095664734641743125e+06
1.522039999999999971e+01 1.089804474900882225e+06
1.526440000000000019e+01 1.082531858904940542e+06
1.530829999999999913e+01 1.075578192889117636e+06
1.535229999999999961e+01 1.068178618040214293e+06
1.539630000000000010e+01 1.060019331723565236e+06
1.544030000000000058e+01 1.051503178303067805e+06
1.548429999999999929e+01 1.042580077446342795e+06
1.552829999999999977e+01 1.037027173542318051e+06
1.557230000000000025e+01 1.037454832494835369e+06
1.561630000000000074e+01 1.043312486199914245e+06
1.566029999999999944e+01 1.053562652527513215e+06
1.570420000000000016e+01 1.065937045163995121e+06
1.574820000000000064e+01 1.079124977584352018e+06
1.579219999999999935e+01 1.094140865520072868e+06
1.583619999999999983e+01 1.111533478361385874e+06
1.588020000000000032e+01 1.132668353103647474e+06
1.592420000000000080e+01 1.159708108444443205e+06
1.596819999999999951e+01 1.191056479763647541e+06
1.601219999999999999e+01 1.224662641137689352e+06
1.605620000000000047e+01 1.260446881741940510e+06
1.610020000000000095e+01 1.294032318015728611e+06
1.614410000000000167e+01 1.318226219774474856e+06
1.618809999999999860e+01 1.328555139475861564e+06
1.623209999999999908e+01 1.329448558363057207e+06
1.627609999999999957e+01 1.324731414736787556e+06
1.632010000000000005e+01 1.311968984478944913e+06
1.636410000000000053e+01 1.292577850334955845e+06
1.640810000000000102e+01 1.272654104659523582e+06
1.645210000000000150e+01 1.256699681201415369e+06
1.649609999999999843e+01 1.245926848535525380e+06
1.654009999999999891e+01 1.239386033698576503e+06
1.658399999999999963e+01 1.235802582698914222e+06
1.662800000000000011e+01 1.236844335810948163e+06
1.667200000000000060e+01 1.243377765310376184e+06
1.671600000000000108e+01 1.252348711339031346e+06
1.676000000000000156e+01 1.258529895175951999e+06
1.680399999999999849e+01 1.261415657002195716e+06
1.684799999999999898e+01 1.266676206854872638e+06
1.689199999999999946e+01 1.277934426625188673e+06
1.693599999999999994e+01 1.289210726248509716e+06
1.697990000000000066e+01 1.293017793651589891e+06
1.702390000000000114e+01 1.288488351302960888e+06
1.706790000000000163e+01 1.279088631816831650e+06
1.711189999999999856e+01 1.269882432960488135e+06
1.715589999999999904e+01 1.260325757712865947e+06
1.719989999999999952e+01 1.249267404903708724e+06
1.724390000000000001e+01 1.237886975212674122e+06
1.728790000000000049e+01 1.226287559666919056e+06
1.733190000000000097e+01 1.215618304643744603e+06
1.737590000000000146e+01 1.208255036389557878e+06
1.741979999999999862e+01 1.202856066251141485e+06
1.746379999999999910e+01 1.193909751338707749e+06
1.750779999999999959e+01 1.181345413339254446e+06
