# energy(eV) alpha
0.000000000000000000e+00 0.000000000000000000e+00
4.529999999999999999e-02 4.339717339856552503e-01
9.049999999999999711e-02 1.733905879654012105e+00
1.358000000000000040e-01 3.902495058948781015e+00
1.811000000000000110e-01 6.765026168042033383e+00
2.263000000000000012e-01 1.083663480810754010e+01
2.716000000000000081e-01 1.534487986711754104e+01
3.169000000000000150e-01 2.093549666174312662e+01
3.620999999999999774e-01 2.738361783004281236e+01
4.073999999999999844e-01 3.470227275574337256e+01
4.526000000000000023e-01 4.330711114299651143e+01
4.979000000000000092e-01 5.239292668916781537e+01
5.432000000000000162e-01 6.233876131983090119e+01
5.884000000000000341e-01 7.369305945203817032e+01
6.337000000000000410e-01 8.539728150536485884e+01
6.790000000000000480e-01 9.860562688984434487e+01
7.241999999999999549e-01 1.120463003387078800e+02
7.694999999999999618e-01 1.270875258915631747e+02
8.147999999999999687e-01 1.438413490060018489e+02
8.599999999999999867e-01 1.599549909505691971e+02
9.052999999999999936e-01 1.777929550727238848e+02
9.506000000000000005e-01 1.974639719861386027e+02
9.958000000000000185e-01 2.171732591177606650e+02
1.041099999999999914e+00 2.398087849637818749e+02
1.086300000000000043e+00 2.614403452029405912e+02
1.131599999999999939e+00 2.840081131998473438e+02
1.176900000000000057e+00 3.108396386021291278e+02
1.222099999999999964e+00 3.364835766166289091e+02
1.267400000000000082e+00 3.643400890709584701e+02
1.312699999999999978e+00 3.932656478095888701e+02
1.357900000000000107e+00 4.232183317557599480e+02
1.403200000000000003e+00 4.542560050922979826e+02
1.448499999999999899e+00 4.877158854648237138e+02
1.493700000000000028e+00 5.208516262843071445e+02
1.538999999999999924e+00 5.594210737265843818e+02
1.584300000000000042e+00 5.962794946988277616e+02
1.629499999999999948e+00 6.372752563470709219e+02
1.674800000000000066e+00 6.779978935673231035e+02
1.719999999999999973e+00 7.214616058035128390e+02
1.765300000000000091e+00 7.678778284704895896e+02
1.810599999999999987e+00 8.139059052745574263e+02
1.855799999999999894e+00 8.645949798386764087e+02
1.901100000000000012e+00 9.149203928806474551e+02
1.946399999999999908e+00 9.701754021034670359e+02
1.991600000000000037e+00 1.026807944509587060e+03
2.036900000000000155e+00 1.084906716249888632e+03
2.082199999999999829e+00 1.148288211470428450e+03
2.127400000000000180e+00 1.211187821418812064e+03
2.172699999999999854e+00 1.279621813124565961e+03
2.217999999999999972e+00 1.351716144512216488e+03
2.263199999999999878e+00 1.423288731772679284e+03
2.308499999999999996e+00 1.500739548169116233e+03
2.353699999999999903e+00 1.584160064961111857e+03
2.399000000000000021e+00 1.667242258229752451e+03
2.444300000000000139e+00 1.756540236137122747e+03
2.489500000000000046e+00 1.849888302210440315e+03
2.534800000000000164e+00 1.949824999601547006e+03
2.580099999999999838e+00 2.054101531794548919e+03
2.625300000000000189e+00 2.165143272519519542e+03
2.670599999999999863e+00 2.275955719292610866e+03
2.715899999999999981e+00 2.401147179940094247e+03
2.761099999999999888e+00 2.528573891825064493e+03
2.806400000000000006e+00 2.663455408401000113e+03
2.851700000000000124e+00 2.805856822348350761e+03
2.896900000000000031e+00 2.958433460960314278e+03
2.942200000000000149e+00 3.118981865644260324e+03
2.987400000000000055e+00 3.290102444393356564e+03
3.032700000000000173e+00 3.472200494653102396e+03
3.077999999999999847e+00 3.665409928837438201e+03
3.123200000000000198e+00 3.869769996124912723e+03
3.168499999999999872e+00 4.094153475662352776e+03
3.213799999999999990e+00 4.330332540542111019e+03
3.258999999999999897e+00 4.581145252282462025e+03
3.304300000000000015e+00 4.858694541274187031e+03
3.349600000000000133e+00 5.151628123736593807e+03
3.394800000000000040e+00 5.471746955408671965e+03
3.440100000000000158e+00 5.819767574127276021e+03
3.485399999999999832e+00 6.195938094626350903e+03
3.530600000000000183e+00 6.606427653365083643e+03
3.575899999999999856e+00 7.064263087614153847e+03
3.621100000000000207e+00 7.563386714522297552e+03
3.666399999999999881e+00 8.120070500047935639e+03
3.711699999999999999e+00 8.740868375423055113e+03
3.756899999999999906e+00 9.432250922497136344e+03
3.802200000000000024e+00 1.021720742262805834e+04
3.847500000000000142e+00 1.111165695381341357e+04
3.892700000000000049e+00 1.214439498177699534e+04
3.938000000000000167e+00 1.333841082717445715e+04
3.983299999999999841e+00 1.475094574187103899e+04
4.028500000000000192e+00 1.644843774180336550e+04
4.073800000000000310e+00 1.852682660262371792e+04
4.119100000000000428e+00 2.114057499181999447e+04
4.164299999999999891e+00 2.453888784372198643e+04
4.209600000000000009e+00 2.913638635761487603e+04
4.254800000000000360e+00 3.563964324523667165e+04
4.300099999999999589e+00 4.495880273312264035e+04
4.345399999999999707e+00 5.734320112398592755e+04
4.390600000000000058e+00 7.244749719709603232e+04
4.435900000000000176e+00 9.064432570660709462e+04
4.481200000000000294e+00 1.101244976833926194e+05
4.526399999999999757e+00 1.288908332065251452e+05
4.571699999999999875e+00 1.484780006694808835e+05
4.616999999999999993e+00 1.704408666721669142e+05
4.662200000000000344e+00 1.959863268768327835e+05
4.707499999999999574e+00 2.244877867101836309e+05
4.752799999999999692e+00 2.586477015772737504e+05
4.798000000000000043e+00 3.021098659221832640e+05
4.843300000000000161e+00 3.505044789595900220e+05
4.888499999999999623e+00 3.863469261765448027e+05
4.933799999999999741e+00 3.867565432716973592e+05
4.979099999999999859e+00 3.573842995408198331e+05
5.024300000000000210e+00 3.268988234095152002e+05
5.069600000000000328e+00 3.084619534110595705e+05
5.114899999999999558e+00 2.990236121438707341e+05
5.160099999999999909e+00 2.966670703805928351e+05
5.205400000000000027e+00 2.965059996321418439e+05
5.250700000000000145e+00 2.937287831205771654e+05
5.295899999999999608e+00 2.868334378797031823e+05
5.341199999999999726e+00 2.759469225850128569e+05
5.386499999999999844e+00 2.630008449888618779e+05
5.431700000000000195e+00 2.542050011323327781e+05
5.477000000000000313e+00 2.531246891736310208e+05
5.522199999999999775e+00 2.587062799734186556e+05
5.567499999999999893e+00 2.693850577539487276e+05
5.612800000000000011e+00 2.835150156171809067e+05
5.658000000000000362e+00 3.013479687410200131e+05
5.703299999999999592e+00 3.245235610710800393e+05
5.748599999999999710e+00 3.549413655861624866e+05
5.793800000000000061e+00 3.896022965619892930e+05
5.839100000000000179e+00 4.212282162712125573e+05
5.884400000000000297e+00 4.431085094511174830e+05
5.929599999999999760e+00 4.567758164957272238e+05
5.974899999999999878e+00 4.656707157211633166e+05
6.020199999999999996e+00 4.718661714369396796e+05
6.065400000000000347e+00 4.790141169481197139e+05
6.110699999999999577e+00 4.862515657082296093e+05
6.155899999999999928e+00 4.928113189363834099e+05
6.201200000000000045e+00 4.999405206782281748e+05
6.246500000000000163e+00 5.062171038823611452e+05
6.291699999999999626e+00 5.073882540433540707e+05
6.336999999999999744e+00 4.992503655481857713e+05
6.382299999999999862e+00 4.841379570782465162e+05
6.427500000000000213e+00 4.680525843439806486e+05
6.472800000000000331e+00 4.555326954756068881e+05
6.518099999999999561e+00 4.498354229422806529e+05
6.563299999999999912e+00 4.497986261318703182e+05
6.608600000000000030e+00 4.501217642317463178e+05
6.653900000000000148e+00 4.481634341464472818e+05
6.699099999999999611e+00 4.447865386757681845e+05
6.744399999999999729e+00 4.406895211467607878e+05
6.789600000000000080e+00 4.374333511790320044e+05
6.834900000000000198e+00 4.367542329721662682e+05
6.880200000000000315e+00 4.375497830181345926e+05
6.925399999999999778e+00 4.387593943672840833e+05
6.970699999999999896e+00 4.402686486950000399e+05
7.016000000000000014e+00 4.426242827097922564e+05
7.061200000000000365e+00 4.456646808988219127e+05
7.106499999999999595e+00 4.477835596829188871e+05
7.151799999999999713e+00 4.488913614482976845e+05
7.197000000000000064e+00 4.499590679429384181e+05
7.242300000000000182e+00 4.504261347452538321e+05
7.287600000000000300e+00 4.495007916000829428e+05
7.332799999999999763e+00 4.486296796204979182e+05
7.378099999999999881e+00 4.491365203986664419e+05
7.423300000000000232e+00 4.511200431657048757e+05
7.468600000000000350e+00 4.548179961579867522e+05
7.513899999999999579e+00 4.595438101510949200e+05
7.559099999999999930e+00 4.649860311403271626e+05
7.604400000000000048e+00 4.711404412777451798e+05
7.649700000000000166e+00 4.768378779323883937e+05
7.694899999999999629e+00 4.805012834501116886e+05
7.740199999999999747e+00 4.833183031913923332e+05
7.785499999999999865e+00 4.870373222433035844e+05
7.830700000000000216e+00 4.915741747169181472e+05
7.876000000000000334e+00 4.982727601236742339e+05
7.921299999999999564e+00 5.091818388422561111e+05
7.966499999999999915e+00 5.258015025438481243e+05
8.011799999999999145e+00 5.473353982988883508e+05
8.057000000000000384e+00 5.714462719773832941e+05
8.102299999999999613e+00 5.963976404399963794e+05
8.147600000000000620e+00 6.199219904307324905e+05
8.192800000000000082e+00 6.408250842509194044e+05
8.238099999999999312e+00 6.564662195146862650e+05
8.283400000000000318e+00 6.632048985656591831e+05
8.328599999999999781e+00 6.622913336948524229e+05
8.373900000000000787e+00 6.594187163513249252e+05
8.419200000000000017e+00 6.579879692914766492e+05
8.464399999999999480e+00 6.587787039055802161e+05
8.509700000000000486e+00 6.609057142928980757e+05
8.554999999999999716e+00 6.636028595856567845e+05
8.600199999999999179e+00 6.672826897384996992e+05
8.645500000000000185e+00 6.703357814862384694e+05
8.690699999999999648e+00 6.708596713566400576e+05
8.736000000000000654e+00 6.658176317879479611e+05
8.781299999999999883e+00 6.543291511311680079e+05
8.826499999999999346e+00 6.412037580516323214e+05
8.871800000000000352e+00 6.325007845373976743e+05
8.917099999999999582e+00 6.302008798606683267e+05
8.962300000000000821e+00 6.331269479740461102e+05
9.007600000000000051e+00 6.392033657641881146e+05
9.052899999999999281e+00 6.467152850499900524e+05
9.098100000000000520e+00 6.546034330233657965e+05
9.143399999999999750e+00 6.613595409504126292e+05
9.188700000000000756e+00 6.660416586100283312e+05
9.233900000000000219e+00 6.688034328514989465e+05
9.279199999999999449e+00 6.727671061655057129e+05
9.324400000000000688e+00 6.806197735824582633e+05
9.369699999999999918e+00 6.912506757009733701e+05
9.414999999999999147e+00 7.030492481305039255e+05
9.460200000000000387e+00 7.175645216811463470e+05
9.505499999999999616e+00 7.330187262618865352e+05
9.550800000000000622e+00 7.469321142605685163e+05
9.596000000000000085e+00 7.601865997695631813e+05
9.641299999999999315e+00 7.739827514123248402e+05
9.686600000000000321e+00 7.887412673242999008e+05
9.731799999999999784e+00 8.043882470289785415e+05
9.777100000000000790e+00 8.185438997698897729e+05
9.822400000000000020e+00 8.291539050044986652e+05
9.867599999999999483e+00 8.363585913553766441e+05
9.912900000000000489e+00 8.407076576890542638e+05
9.958099999999999952e+00 8.412806987203713506e+05
1.000339999999999918e+01 8.398025551906477194e+05
1.004870000000000019e+01 8.390678548852973618e+05
1.009389999999999965e+01 8.391658139475843636e+05
1.013920000000000066e+01 8.387269442309191218e+05
1.018449999999999989e+01 8.378337897378052585e+05
1.022969999999999935e+01 8.370142618306407239e+05
1.027500000000000036e+01 8.357710681502615334e+05
1.032029999999999959e+01 8.352017307169646956e+05
1.036550000000000082e+01 8.355513400867875898e+05
1.041080000000000005e+01 8.357846752853550715e+05
1.045609999999999928e+01 8.358758838657303713e+05
1.050130000000000052e+01 8.373349977977535455e+05
1.054659999999999975e+01 8.404993889863810036e+05
1.059179999999999922e+01 8.458362657048007241e+05
1.063710000000000022e+01 8.543347885935300728e+05
1.068239999999999945e+01 8.651551938080778345e+05
1.072760000000000069e+01 8.765936964440615848e+05
1.077289999999999992e+01 8.905923865179461427e+05
1.081819999999999915e+01 9.052243195495125838e+05
1.086340000000000039e+01 9.169206925601888215e+05
1.090869999999999962e+01 9.305415033735324396e+05
1.095400000000000063e+01 9.471486102638379671e+05
1.099920000000000009e+01 9.626109495293139480e+05
1.104449999999999932e+01 9.780053905835365877e+05
1.108980000000000032e+01 9.936009330722772283e+05
1.113499999999999979e+01 1.008342997885543620e+06
1.118030000000000079e+01 1.018783927782651619e+06
1.122550000000000026e+01 1.020523773654611199e+06
1.127079999999999949e+01 1.011633066515611950e+06
1.131610000000000049e+01 1.000224722574912012e+06
1.136129999999999995e+01 9.941672136760622961e+05
1.140659999999999918e+01 9.937678883296607528e+05
1.145190000000000019e+01 9.962345490724380361e+05
1.149709999999999965e+01 9.979361124598154565e+05
1.154240000000000066e+01 9.964958923173802905e+05
1.158769999999999989e+01 9.936692662618623581e+05
1.163289999999999935e+01 9.915327900583032751e+05
1.167820000000000036e+01 9.908881989394396078e+05
1.172349999999999959e+01 9.894491663130511297e+05
1.176870000000000083e+01 9.855479975996017456e+05
1.181400000000000006e+01 9.795912253722815076e+05
1.185919999999999952e+01 9.724721614108443027e+05
1.190450000000000053e+01 9.664722400250710780e+05
1.194979999999999976e+01 9.613063995191063732e+05
1.199499999999999922e+01 9.581728840818332974e+05
1.204030000000000022e+01 9.590176114944356959e+05
1.208559999999999945e+01 9.619850212444072822e+05
1.213080000000000069e+01 9.648170895312515786e+05
1.217609999999999992e+01 9.702344815730567789e+05
1.222139999999999915e+01 9.797246180559720378e+05
1.226660000000000039e+01 9.913091060334544163e+05
1.231189999999999962e+01 1.001953259025656502e+06
1.235720000000000063e+01 1.010844772953097476e+06
1.240240000000000009e+01 1.018052868279100978e+06
1.244769999999999932e+01 1.023535923103263718e+06
1.249290000000000056e+01 1.030156840811099624e+06
1.253819999999999979e+01 1.040406587963744882e+06
1.258350000000000080e+01 1.052306088482615538e+06
1.262870000000000026e+01 1.061899003952501342e+06
1.267399999999999949e+01 1.065322005096999696e+06
1.271930000000000049e+01 1.064020524362317054e+06
1.276449999999999996e+01 1.063625024879102129e+06
1.280979999999999919e+01 1.067785001041429350e+06
1.285510000000000019e+01 1.075627619671387831e+06
1.290029999999999966e+01 1.085643458011294249e+06
1.294560000000000066e+01 1.098358030575176468e+06
1.299089999999999989e+01 1.115438439221399371e+06
1.303609999999999935e+01 1.133121680972608039e+06
1.308140000000000036e+01 1.145409610719509656e+06
1.312659999999999982e+01 1.153491291223447071e+06
1.317190000000000083e+01 1.161916600882287836e+06
1.321720000000000006e+01 1.171670013435747474e+06
1.326239999999999952e+01 1.182450586074278690e+06
1.330770000000000053e+01 1.190349739975509467e+06
1.335299999999999976e+01 1.192125962730474304e+06
1.339819999999999922e+01 1.190753528151564067e+06
1.344350000000000023e+01 1.189659789489819203e+06
1.348879999999999946e+01 1.189459381002093898e+06
1.353400000000000070e+01 1.188157737551505910e+06
1.357929999999999993e+01 1.183276080307086231e+06
1.362459999999999916e+01 1.176412005370336818e+06
1.366980000000000040e+01 1.168622898023737129e+06
1.371509999999999962e+01 1.160116170417845948e+06
1.376030000000000086e+01 1.150804579717836808e+06
1.380560000000000009e+01 1.140185995868965751e+06
1.385089999999999932e+01 1.128209635146144545e+06
1.389610000000000056e+01 1.115978739501310512e+06
1.394139999999999979e+01 1.105657564732929226e+06
1.398670000000000080e+01 1.098416006577641470e+06
1.403190000000000026e+01 1.093759862391632982e+06
1.407719999999999949e+01 1.091898586156298174e+06
1.412250000000000050e+01 1.093934571598115377e+06
1.416769999999999996e+01 1.097966986456743442e+06
1.421299999999999919e+01 1.103170850445185322e+06
1.425830000000000020e+01 1.113110036149711115e+06
1.430349999999999966e+01 1.128876987935114419e+06
1.434880000000000067e+01 1.145662031967108604e+06
1.439400000000000013e+01 1.160511925372224301e+06
1.443929999999999936e+01 1.175620958917132113e+06
1.448460000000000036e+01 1.191708260578810470e+06
1.452979999999999983e+01 1.207522824879811844e+06
1.457510000000000083e+01 1.221727055576930987e+06
1.462040000000000006e+01 1.231383201863652561e+06
1.466559999999999953e+01 1.238502950467132963e+06
1.471090000000000053e+01 1.243809292661539046e+06
1.475619999999999976e+01 1.243563559867008822e+06
1.480139999999999922e+01 1.241399402049934724e+06
1.484670000000000023e+01 1.241168483422182500e+06
1.489199999999999946e+01 1.241090460756320274e+06
1.493720000000000070e+01 1.239386544919866603e+06
1.498249999999999993e+01 1.236378516852900619e+06
1.502769999999999939e+01 1.233830387667141622e+06
1.507300000000000040e+01 1.231881345874704188e+06
1.511829999999999963e+01 1.230692747092935024e+06
1.516350000000000087e+01 1.229710450242119841e+06
1.520880000000000010e+01 1.227107902854079846e+06
1.525409999999999933e+01 1.221083919757506810e+06
1.529930000000000057e+01 1.211467555938226171e+06
1.534459999999999980e+01 1.201887686707524350e+06
1.538990000000000080e+01 1.195287405852486379e+06
1.543510000000000026e+01 1.188685757623368176e+06
1.548039999999999949e+01 1.181282579958699178e+06
1.552570000000000050e+01 1.176238253714511637e+06
1.557089999999999996e+01 1.172546037063342752e+06
1.561619999999999919e+01 1.167911644845785107e+06
1.566140000000000043e+01 1.165520202416432556e+06
1.570669999999999966e+01 1.163429752562521026e+06
1.575200000000000067e+01 1.157215533336063847e+06
1.579720000000000013e+01 1.150119076984898886e+06
1.584249999999999936e+01 1.147642324845264200e+06
1.588780000000000037e+01 1.152911677520085592e+06
1.593299999999999983e+01 1.167861401168310316e+06
1.597830000000000084e+01 1.190492835908067180e+06
1.602359999999999829e+01 1.217859557243999094e+06
1.606879999999999953e+01 1.249533422518986743e+06
1.611410000000000053e+01 1.285047802293489454e+06
1.615940000000000154e+01 1.324399039133045590e+06
1.620459999999999923e+01 1.364614634987378027e+06
1.624990000000000023e+01 1.396615331435024273e+06
1.629510000000000147e+01 1.415966509353108937e+06
1.634039999999999893e+01 1.425666833389168838e+06
1.638569999999999993e+01 1.425854167036253726e+06
1.643090000000000117e+01 1.417356565381158842e+06
1.647619999999999862e+01 1.406320780772605911e+06
1.652149999999999963e+01 1.395390618347383337e+06
1.656670000000000087e+01 1.382777954838729696e+06
1.661199999999999832e+01 1.368338340626350138e+06
1.665729999999999933e+01 1.356649469969926402e+06
1.670250000000000057e+01 1.351956324390150607e+06
1.674780000000000157e+01 1.353678897715276806e+06
1.679309999999999903e+01 1.360239399435102707e+06
1.683830000000000027e+01 1.368573352337686578e+06
1.688360000000000127e+01 1.376268688434749609e+06
1.692879999999999896e+01 1.386937335954721784e+06
1.697409999999999997e+01 1.402378318423940800e+06
1.701940000000000097e+01 1.417302260485914536e+06
1.706459999999999866e+01 1.425797014158895472e+06
1.710989999999999966e+01 1.429543466574153164e+06
1.715520000000000067e+01 1.429136470856267260e+06
1.720039999999999836e+01 1.425046577296653530e+06
1.724569999999999936e+01 1.419823163626430556e+06
1.729100000000000037e+01 1.415808468817895046e+06
1.733620000000000161e+01 1.412454934250561753e+06
1.738149999999999906e+01 1.408308429175215540e+06
1.742680000000000007e+01 1.404146592591354623e+06
1.747200000000000131e+01 1.400911882749214070e+06
1.751729999999999876e+01 1.396678857042573858e+06
1.756250000000000000e+01 1.392713881058158120e+06
1.760780000000000101e+01 1.389091015357365366e+06
1.765309999999999846e+01 1.383621639228561427e+06
1.769829999999999970e+01 1.375714830936983461e+06
1.774360000000000070e+01 1.365644859374147141e+06
1.778890000000000171e+01 1.354404803980988218e+06
1.783409999999999940e+01 1.345603840512960451e+06
1.787940000000000040e+01 1.340145646031319164e+06
1.792470000000000141e+01 1.334795557412217837e+06
1.796989999999999910e+01 1.327815543328751810e+06
1.801520000000000010e+01 1.317822346529426519e+06
