# energy(eV) alpha
0.000000000000000000e+00 0.000000000000000000e+00
4.599999999999999922e-02 5.959388560784412148e-01
9.199999999999999845e-02 2.213387537344652323e+00
1.380000000000000115e-01 5.107408676805993863e+00
1.839999999999999969e-01 8.851912145250580011e+00
2.300000000000000100e-01 1.425476117285009892e+01
2.760000000000000231e-01 2.042126214746402013e+01
3.220999999999999974e-01 2.769954068411251313e+01
3.680999999999999828e-01 3.641235147678959549e+01
4.141000000000000236e-01 4.592750870516938022e+01
4.601000000000000090e-01 5.696598612292567765e+01
5.060999999999999943e-01 6.965310106212481855e+01
5.521000000000000352e-01 8.258379363481235202e+01
5.980999999999999650e-01 9.660674287863085397e+01
6.441000000000000059e-01 1.129064776094046749e+02
6.901000000000000467e-01 1.298254665827942915e+02
7.360999999999999766e-01 1.492677065636097211e+02
7.821000000000000174e-01 1.693207989571255609e+02
8.280999999999999472e-01 1.906190206756692760e+02
8.740999999999999881e-01 2.131556190416393974e+02
9.202000000000000179e-01 2.377977925616612254e+02
9.661999999999999478e-01 2.637288051099744166e+02
1.012199999999999989e+00 2.909678226124882485e+02
1.058200000000000029e+00 3.204805309641820372e+02
1.104200000000000070e+00 3.503586513410834868e+02
1.150199999999999889e+00 3.825793290087942751e+02
1.196199999999999930e+00 4.183547618127603300e+02
1.242199999999999971e+00 4.533792632004207803e+02
1.288200000000000012e+00 4.909280507144841295e+02
1.334200000000000053e+00 5.323361250791664361e+02
1.380200000000000093e+00 5.728039009404842545e+02
1.426199999999999912e+00 6.172702569798706236e+02
1.472199999999999953e+00 6.646309708129181217e+02
1.518299999999999983e+00 7.136629196838789539e+02
1.564300000000000024e+00 7.656718809955348206e+02
1.610300000000000065e+00 8.193641039806108211e+02
1.656300000000000106e+00 8.762196106246506133e+02
1.702299999999999924e+00 9.378746385877991543e+02
1.748299999999999965e+00 9.998111932310453085e+02
1.794300000000000006e+00 1.065136084222944419e+03
1.840300000000000047e+00 1.135612835654287210e+03
1.886300000000000088e+00 1.211429247141375981e+03
1.932299999999999907e+00 1.287605971194447648e+03
1.978299999999999947e+00 1.369320278220080581e+03
2.024300000000000210e+00 1.454959531102916344e+03
2.070300000000000029e+00 1.546454109109796264e+03
2.116299999999999848e+00 1.640226655078150543e+03
2.162399999999999878e+00 1.742101799247540612e+03
2.208400000000000141e+00 1.850237197995399356e+03
2.254399999999999959e+00 1.962903270604840827e+03
2.300399999999999778e+00 2.082186797523843779e+03
2.346400000000000041e+00 2.208261281956396488e+03
2.392399999999999860e+00 2.343403016977594689e+03
2.438400000000000123e+00 2.485695218912723703e+03
2.484399999999999942e+00 2.639644962196336564e+03
2.530400000000000205e+00 2.803381424142152810e+03
2.576400000000000023e+00 2.977130638426051064e+03
2.622399999999999842e+00 3.161079843781654745e+03
2.668400000000000105e+00 3.362370303293692814e+03
2.714399999999999924e+00 3.576775840142873676e+03
2.760499999999999954e+00 3.811820644056834226e+03
2.806500000000000217e+00 4.060481968687933659e+03
2.852500000000000036e+00 4.327991498466012672e+03
2.898499999999999854e+00 4.622070365405304074e+03
2.944500000000000117e+00 4.945811460835218895e+03
2.990499999999999936e+00 5.297249463942873263e+03
3.036500000000000199e+00 5.681919072323042201e+03
3.082500000000000018e+00 6.108071484758273982e+03
3.128499999999999837e+00 6.581629406404845213e+03
3.174500000000000099e+00 7.111122671320454174e+03
3.220499999999999918e+00 7.710524741100983192e+03
3.266500000000000181e+00 8.386054627435592920e+03
3.312500000000000000e+00 9.159959782029900452e+03
3.358600000000000030e+00 1.005513044747834101e+04
3.404599999999999849e+00 1.110461162559251716e+04
3.450600000000000112e+00 1.235591516124381087e+04
3.496599999999999930e+00 1.387037404147453344e+04
3.542600000000000193e+00 1.574754300965916991e+04
3.588600000000000012e+00 1.814494795684078417e+04
3.634599999999999831e+00 2.131012358007184957e+04
3.680600000000000094e+00 2.568606051292597476e+04
3.726599999999999913e+00 3.203675889608864600e+04
3.772600000000000176e+00 4.163093110017927393e+04
3.818599999999999994e+00 5.573781549283360073e+04
3.864599999999999813e+00 7.359926003983673581e+04
3.910600000000000076e+00 9.197502739217154158e+04
3.956700000000000106e+00 1.088639236343204102e+05
4.002699999999999925e+00 1.241143589213526284e+05
4.048700000000000188e+00 1.384238590096658154e+05
4.094699999999999562e+00 1.495750922155580192e+05
4.140699999999999825e+00 1.572418906083314796e+05
4.186700000000000088e+00 1.657496965782603365e+05
4.232700000000000351e+00 1.772054960164550866e+05
4.278699999999999726e+00 1.872846738418816240e+05
4.324699999999999989e+00 1.952700668449715595e+05
4.370700000000000252e+00 2.047202300681779161e+05
4.416699999999999626e+00 2.184670810156892403e+05
4.462699999999999889e+00 2.332169864454226336e+05
4.508700000000000152e+00 2.522093309877369320e+05
4.554800000000000182e+00 2.798015305279007298e+05
4.600799999999999557e+00 3.076733586904740660e+05
4.646799999999999820e+00 3.220001752073253738e+05
4.692800000000000082e+00 3.193691222843212890e+05
4.738800000000000345e+00 3.145419139021234587e+05
4.784799999999999720e+00 3.197693415149596403e+05
4.830799999999999983e+00 3.287007814774638391e+05
4.876800000000000246e+00 3.283192188526468235e+05
4.922799999999999621e+00 3.211999288883848349e+05
4.968799999999999883e+00 3.147883804612678359e+05
5.014800000000000146e+00 3.105060459612147533e+05
5.060800000000000409e+00 3.104049171715124976e+05
5.106799999999999784e+00 3.146415874547811691e+05
5.152899999999999814e+00 3.177946816035219235e+05
5.198900000000000077e+00 3.160794307599054882e+05
5.244900000000000340e+00 3.117223193284116569e+05
5.290899999999999714e+00 3.083403084239426535e+05
5.336899999999999977e+00 3.083765895876358263e+05
5.382900000000000240e+00 3.123116618439416052e+05
5.428899999999999615e+00 3.202140323621737771e+05
5.474899999999999878e+00 3.333522064555900870e+05
5.520900000000000141e+00 3.546571730088913464e+05
5.566900000000000404e+00 3.830730331054528360e+05
5.612899999999999778e+00 4.152723942468899768e+05
5.658900000000000041e+00 4.485698141778503777e+05
5.704900000000000304e+00 4.782816091178518254e+05
5.751000000000000334e+00 5.009131415318995714e+05
5.796999999999999709e+00 5.142211735142474063e+05
5.842999999999999972e+00 5.226400014512852649e+05
5.889000000000000234e+00 5.296826071492704796e+05
5.934999999999999609e+00 5.338152952940425603e+05
5.980999999999999872e+00 5.340942081903427606e+05
6.027000000000000135e+00 5.309787896297213156e+05
6.073000000000000398e+00 5.213384211333871353e+05
6.118999999999999773e+00 5.040477229532914935e+05
6.165000000000000036e+00 4.866843726629786543e+05
6.211000000000000298e+00 4.760178031647097669e+05
6.256999999999999673e+00 4.706946773843970732e+05
6.302999999999999936e+00 4.636148478631240432e+05
6.349000000000000199e+00 4.477591433965162141e+05
6.395100000000000229e+00 4.284910654278343427e+05
6.441099999999999604e+00 4.145801089204500895e+05
6.487099999999999866e+00 4.085921660529456567e+05
6.533100000000000129e+00 4.101553681857431657e+05
6.579100000000000392e+00 4.181694229326260975e+05
6.625099999999999767e+00 4.296061987270434620e+05
6.671100000000000030e+00 4.367877275223071338e+05
6.717100000000000293e+00 4.391828008696817560e+05
6.763099999999999667e+00 4.419561927612769650e+05
6.809099999999999930e+00 4.453890426868550130e+05
6.855100000000000193e+00 4.469127682463606470e+05
6.901099999999999568e+00 4.465112643192246323e+05
6.947099999999999831e+00 4.485055051024999702e+05
6.993199999999999861e+00 4.533184850371537614e+05
7.039200000000000124e+00 4.584010914235434611e+05
7.085200000000000387e+00 4.616557974523095181e+05
7.131199999999999761e+00 4.616014876532679191e+05
7.177200000000000024e+00 4.590956896080785664e+05
7.223200000000000287e+00 4.572472174810383585e+05
7.269199999999999662e+00 4.582013381783327204e+05
7.315199999999999925e+00 4.624410675979465595e+05
7.361200000000000188e+00 4.674376413036158774e+05
7.407199999999999562e+00 4.715792749285994796e+05
7.453199999999999825e+00 4.750579661454429151e+05
7.499200000000000088e+00 4.763958033746327274e+05
7.545200000000000351e+00 4.780435431789396098e+05
7.591300000000000381e+00 4.827061445186536876e+05
7.637299999999999756e+00 4.880814452636216884e+05
7.683300000000000018e+00 4.917587756594248931e+05
7.729300000000000281e+00 4.930733740909460466e+05
7.775299999999999656e+00 4.932127953680848586e+05
7.821299999999999919e+00 4.927088035062805284e+05
7.867300000000000182e+00 4.926816502165689017e+05
7.913299999999999557e+00 4.950062500828714110e+05
7.959299999999999820e+00 5.000420844958023517e+05
8.005300000000000082e+00 5.079338415849361918e+05
8.051299999999999457e+00 5.201665907925649080e+05
8.097300000000000608e+00 5.364201015968397260e+05
8.143299999999999983e+00 5.537821034069712041e+05
8.189399999999999125e+00 5.712915478297717636e+05
8.235400000000000276e+00 5.884327753855414921e+05
8.281399999999999650e+00 6.064252790162409656e+05
8.327400000000000801e+00 6.238706470017748652e+05
8.373400000000000176e+00 6.371750024200871121e+05
8.419399999999999551e+00 6.445222485741443234e+05
8.465400000000000702e+00 6.450308665051830467e+05
8.511400000000000077e+00 6.394466583247350063e+05
8.557399999999999451e+00 6.332908347250838997e+05
8.603400000000000603e+00 6.315306764550621156e+05
8.649399999999999977e+00 6.322804882482298417e+05
8.695399999999999352e+00 6.315154384840960847e+05
8.741400000000000503e+00 6.293704325006097788e+05
8.787499999999999645e+00 6.283158171600098722e+05
8.833500000000000796e+00 6.278428267449159175e+05
8.879500000000000171e+00 6.257579418692057952e+05
8.925499999999999545e+00 6.210835873091629473e+05
8.971500000000000696e+00 6.162805595372107346e+05
9.017500000000000071e+00 6.143095050147071015e+05
9.063499999999999446e+00 6.164705217767339200e+05
9.109500000000000597e+00 6.225760773529949365e+05
9.155499999999999972e+00 6.319967089764245320e+05
9.201499999999999346e+00 6.433148192783012055e+05
9.247500000000000497e+00 6.564285275348130381e+05
9.293499999999999872e+00 6.719134021735974820e+05
9.339499999999999247e+00 6.866088808579746401e+05
9.385600000000000165e+00 6.993700352508819196e+05
9.431599999999999540e+00 7.126268082981769694e+05
9.477600000000000691e+00 7.265261674791692058e+05
9.523600000000000065e+00 7.401009822663720697e+05
9.569599999999999440e+00 7.526392467858383898e+05
9.615600000000000591e+00 7.666082410963153234e+05
9.661599999999999966e+00 7.824263196224907879e+05
9.707599999999999341e+00 7.978303810741959605e+05
9.753600000000000492e+00 8.113795219230223447e+05
9.799599999999999866e+00 8.209294148680520011e+05
9.845599999999999241e+00 8.277948086255746894e+05
9.891600000000000392e+00 8.348701774967019446e+05
9.937599999999999767e+00 8.437475555991028668e+05
9.983700000000000685e+00 8.539780742893847637e+05
1.002970000000000006e+01 8.617855392995021539e+05
1.007569999999999943e+01 8.658232470089988783e+05
1.012170000000000059e+01 8.672872148845361080e+05
1.016769999999999996e+01 8.684334522987427190e+05
1.021369999999999933e+01 8.689153994169548387e+05
1.025970000000000049e+01 8.689481936344860587e+05
1.030569999999999986e+01 8.731039724525517086e+05
1.035169999999999924e+01 8.831286171210599132e+05
1.039770000000000039e+01 8.948195519705673214e+05
1.044369999999999976e+01 9.050592264836754184e+05
1.048969999999999914e+01 9.139242286060504848e+05
1.053570000000000029e+01 9.231405185616119998e+05
1.058169999999999966e+01 9.334115761797734303e+05
1.062780000000000058e+01 9.447802186131674098e+05
1.067379999999999995e+01 9.551055536566833034e+05
1.071979999999999933e+01 9.603863288364718901e+05
1.076580000000000048e+01 9.646755484167977702e+05
1.081179999999999986e+01 9.719816476367569994e+05
1.085779999999999923e+01 9.819222839968538610e+05
1.090380000000000038e+01 9.928446880637167487e+05
1.094979999999999976e+01 1.004208916968428646e+06
1.099579999999999913e+01 1.014326269687977270e+06
1.104180000000000028e+01 1.018769526531839510e+06
1.108779999999999966e+01 1.017082566420089221e+06
1.113380000000000081e+01 1.013191975322742132e+06
1.117980000000000018e+01 1.010362928090824164e+06
1.122589999999999932e+01 1.008066871869924711e+06
1.127190000000000047e+01 1.007330819036359899e+06
1.131789999999999985e+01 1.010014556866406696e+06
1.136389999999999922e+01 1.014885136670135777e+06
1.140990000000000038e+01 1.019749351174439886e+06
1.145589999999999975e+01 1.021971150108812028e+06
1.150189999999999912e+01 1.023794744147686055e+06
1.154790000000000028e+01 1.027592211434816243e+06
1.159389999999999965e+01 1.030450898671127507e+06
1.163990000000000080e+01 1.030765300821228884e+06
1.168590000000000018e+01 1.028563804186501075e+06
1.173189999999999955e+01 1.025333775685853558e+06
1.177790000000000070e+01 1.023721096342367586e+06
1.182399999999999984e+01 1.023960434046503855e+06
1.186999999999999922e+01 1.022958504109368194e+06
1.191600000000000037e+01 1.020896749475743040e+06
1.196199999999999974e+01 1.018534254642534419e+06
1.200799999999999912e+01 1.014005994794741389e+06
1.205400000000000027e+01 1.010266406881229486e+06
1.209999999999999964e+01 1.009242018695992883e+06
1.214600000000000080e+01 1.010223432686120388e+06
1.219200000000000017e+01 1.013023869975437061e+06
1.223799999999999955e+01 1.018430550233585876e+06
1.228400000000000070e+01 1.028590863884591730e+06
1.233000000000000007e+01 1.040862931634161738e+06
1.237599999999999945e+01 1.048278301583294407e+06
1.242210000000000036e+01 1.051968209712245036e+06
1.246809999999999974e+01 1.057267817527333740e+06
1.251409999999999911e+01 1.065016314892672934e+06
1.256010000000000026e+01 1.075241555762313539e+06
1.260609999999999964e+01 1.085546322633217555e+06
1.265210000000000079e+01 1.094374206080310047e+06
1.269810000000000016e+01 1.101055942279817769e+06
1.274409999999999954e+01 1.106072595638380153e+06
1.279010000000000069e+01 1.110180860798499780e+06
1.283610000000000007e+01 1.114526023859125795e+06
1.288209999999999944e+01 1.121329384980006376e+06
1.292810000000000059e+01 1.128993039061744697e+06
1.297409999999999997e+01 1.136486175606696634e+06
1.302020000000000088e+01 1.145464374200680526e+06
1.306620000000000026e+01 1.157462287355615757e+06
1.311219999999999963e+01 1.169541692850418855e+06
1.315820000000000078e+01 1.177708426798854489e+06
1.320420000000000016e+01 1.182176310968744569e+06
1.325019999999999953e+01 1.184750792922338238e+06
1.329620000000000068e+01 1.187579317050930578e+06
1.334220000000000006e+01 1.192300343822573544e+06
1.338819999999999943e+01 1.198512990195183782e+06
1.343420000000000059e+01 1.206958533522350248e+06
1.348019999999999996e+01 1.217335034510484198e+06
1.352619999999999933e+01 1.227759510139937978e+06
1.357220000000000049e+01 1.234772127783714561e+06
1.361829999999999963e+01 1.236952368061393732e+06
1.366430000000000078e+01 1.233415620110488497e+06
1.371030000000000015e+01 1.224286616592233535e+06
1.375629999999999953e+01 1.213028222285107244e+06
1.380230000000000068e+01 1.202654668576748343e+06
1.384830000000000005e+01 1.192140830590385478e+06
1.389429999999999943e+01 1.179856062273029936e+06
1.394030000000000058e+01 1.167726570971125271e+06
1.398629999999999995e+01 1.158872954425521428e+06
1.403229999999999933e+01 1.154160080480017932e+06
1.407830000000000048e+01 1.150496972499818541e+06
1.412429999999999986e+01 1.145984652934236219e+06
1.417029999999999923e+01 1.140628790450814879e+06
1.421630000000000038e+01 1.136751347743984312e+06
1.426239999999999952e+01 1.136987934739643941e+06
1.430840000000000067e+01 1.142461802310324041e+06
1.435440000000000005e+01 1.152375485000406392e+06
1.440039999999999942e+01 1.166626118730063550e+06
1.444640000000000057e+01 1.182983008528021164e+06
1.449239999999999995e+01 1.200509735134401126e+06
1.453839999999999932e+01 1.217676994120667921e+06
1.458440000000000047e+01 1.233446339401123812e+06
1.463039999999999985e+01 1.247945853890765924e+06
1.467639999999999922e+01 1.261617602937887423e+06
1.472240000000000038e+01 1.272643167729157489e+06
1.476839999999999975e+01 1.278356483768335544e+06
1.481439999999999912e+01 1.279922686133782612e+06
1.486050000000000004e+01 1.281742255691614235e+06
1.490649999999999942e+01 1.284885164233688498e+06
1.495250000000000057e+01 1.288735839552397374e+06
1.499849999999999994e+01 1.290844168196793646e+06
1.504449999999999932e+01 1.288343059257198358e+06
1.509050000000000047e+01 1.282833150601334870e+06
1.513649999999999984e+01 1.274523253583355108e+06
1.518249999999999922e+01 1.262684008878072957e+06
1.522850000000000037e+01 1.248414727104260819e+06
1.527449999999999974e+01 1.235366164047749946e+06
1.532049999999999912e+01 1.226503364628891926e+06
1.536650000000000027e+01 1.221482531009375583e+06
1.541249999999999964e+01 1.220735874233459122e+06
1.545860000000000056e+01 1.225872245561604388e+06
1.550459999999999994e+01 1.234044791762410663e+06
1.555059999999999931e+01 1.241313716593714431e+06
1.559660000000000046e+01 1.245965276964581804e+06
1.564259999999999984e+01 1.249601759430175414e+06
1.568859999999999921e+01 1.251833340691834921e+06
1.573460000000000036e+01 1.251857495437612524e+06
1.578059999999999974e+01 1.247812187935632188e+06
1.582659999999999911e+01 1.240509633445704589e+06
1.587260000000000026e+01 1.233707476767173503e+06
1.591859999999999964e+01 1.231252739026495488e+06
1.596460000000000079e+01 1.234274887208840577e+06
1.601060000000000016e+01 1.240016643619405106e+06
1.605669999999999931e+01 1.243461149849758483e+06
1.610269999999999868e+01 1.244426947382741608e+06
1.614870000000000161e+01 1.246129723546013469e+06
1.619470000000000098e+01 1.249110913929519942e+06
1.624070000000000036e+01 1.254906948629990220e+06
1.628669999999999973e+01 1.262563649862070801e+06
1.633269999999999911e+01 1.270985793486645445e+06
1.637869999999999848e+01 1.278671893415709492e+06
1.642470000000000141e+01 1.286004906470105750e+06
1.647070000000000078e+01 1.295432731910923030e+06
1.651670000000000016e+01 1.303837975634585600e+06
1.656269999999999953e+01 1.305032171070336597e+06
1.660869999999999891e+01 1.302333969490788644e+06
1.665480000000000160e+01 1.300364370148645248e+06
1.670080000000000098e+01 1.297995219110333594e+06
1.674680000000000035e+01 1.294190050348806893e+06
1.679279999999999973e+01 1.289921753114343155e+06
1.683879999999999910e+01 1.286586225997433066e+06
1.688479999999999848e+01 1.283390693520992063e+06
1.693080000000000140e+01 1.279695513827479677e+06
1.697680000000000078e+01 1.277965368210832821e+06
1.702280000000000015e+01 1.279578102330554044e+06
1.706879999999999953e+01 1.283215678084651008e+06
1.711479999999999890e+01 1.287781904233090114e+06
1.716079999999999828e+01 1.291840268615144771e+06
1.720680000000000121e+01 1.296842484009888489e+06
1.725290000000000035e+01 1.303203097011109581e+06
1.729889999999999972e+01 1.307425197481626412e+06
1.734489999999999910e+01 1.308442018128552241e+06
1.739089999999999847e+01 1.309246149912609719e+06
1.743690000000000140e+01 1.309576641232073540e+06
1.748290000000000077e+01 1.308886220378688304e+06
1.752890000000000015e+01 1.308068827984352596e+06
1.757489999999999952e+01 1.306858128773157485e+06
1.762089999999999890e+01 1.302713398525723955e+06
1.766689999999999827e+01 1.295987026332948357e+06
1.771290000000000120e+01 1.288365150918495841e+06
1.775890000000000057e+01 1.278513948742781300e+06
1.780489999999999995e+01 1.266017044116389006e+06
1.785099999999999909e+01 1.252424801212634426e+06
1.789699999999999847e+01 1.240419933529843576e+06
1.794300000000000139e+01 1.232564787265122170e+06
1.798900000000000077e+01 1.226498404375622515e+06
1.803500000000000014e+01 1.220955944703255547e+06
1.808099999999999952e+01 1.217651830658543622e+06
1.812699999999999889e+01 1.215563355265542399e+06
1.817299999999999827e+01 1.212624524044547696e+06
1.821900000000000119e+01 1.209012680479436414e+06
1.826500000000000057e+01 1.203308827838850906e+06
1.831099999999999994e+01 1.194836975004632026e+06
