# energy(eV) alpha
0.000000000000000000e+00 0.000000000000000000e+00
4.189999999999999974e-02 2.580333361165207506e+00
8.379999999999999949e-02 1.044695748006457592e+01
1.255999999999999894e-01 2.348029440071585938e+01
1.675000000000000100e-01 4.186139212346029836e+01
2.094000000000000028e-01 6.613723737332902886e+01
2.513000000000000234e-01 9.571785498916297286e+01
2.932000000000000162e-01 1.311539152680169593e+02
3.351000000000000090e-01 1.731167978929631772e+02
3.769000000000000128e-01 2.210389491190887838e+02
4.188000000000000056e-01 2.757215184543007354e+02
4.606999999999999984e-01 3.380457785550137260e+02
5.026000000000000467e-01 4.080517372433861851e+02
5.444999999999999840e-01 4.868714939370560728e+02
5.864000000000000323e-01 5.745518899911384096e+02
6.281999999999999806e-01 6.732481739422383953e+02
6.701000000000000290e-01 7.813936358153231367e+02
7.119999999999999662e-01 9.028700827727254818e+02
7.539000000000000146e-01 1.037415045442044402e+03
7.957999999999999519e-01 1.188642502639421309e+03
8.376000000000000112e-01 1.355588718565841646e+03
8.794999999999999485e-01 1.544530103394677781e+03
9.213999999999999968e-01 1.754670087358159890e+03
9.633000000000000451e-01 1.991322744401735463e+03
1.005200000000000093e+00 2.260377933913272045e+03
1.047099999999999920e+00 2.566020208262742926e+03
1.088899999999999979e+00 2.916246206225270271e+03
1.130800000000000027e+00 3.320512285574116959e+03
1.172700000000000076e+00 3.790606251796536981e+03
1.214599999999999902e+00 4.345396232925992081e+03
1.256499999999999950e+00 5.005832602448052057e+03
1.298300000000000010e+00 5.806353974158613710e+03
1.340200000000000058e+00 6.794890527609825767e+03
1.382100000000000106e+00 8.041367611714686973e+03
1.423999999999999932e+00 9.662971046710119481e+03
1.465899999999999981e+00 1.184232957719744081e+04
1.507800000000000029e+00 1.490162236239450249e+04
1.549600000000000088e+00 1.938333491227707782e+04
1.591499999999999915e+00 2.611198685229510374e+04
1.633399999999999963e+00 3.551599256773536035e+04
1.675300000000000011e+00 4.511274758811383799e+04
1.717200000000000060e+00 5.099167089701902296e+04
1.759100000000000108e+00 5.627198554569562839e+04
1.800899999999999945e+00 6.784552947901147127e+04
1.842799999999999994e+00 8.997418441976240138e+04
1.884700000000000042e+00 1.199801055172719352e+05
1.926600000000000090e+00 1.418346148680145852e+05
1.968499999999999917e+00 1.389291052900446812e+05
2.010299999999999976e+00 1.252982781441381958e+05
2.052200000000000024e+00 1.244657943547930481e+05
2.094100000000000072e+00 1.444551337413921428e+05
2.136000000000000121e+00 1.798159362242744537e+05
2.177900000000000169e+00 2.063909551558749226e+05
2.219800000000000217e+00 1.950012281316926237e+05
2.261600000000000055e+00 1.542732925634832936e+05
2.303500000000000103e+00 1.153105012119685271e+05
2.345400000000000151e+00 9.053757633365703805e+04
2.387300000000000200e+00 7.814858076312218327e+04
2.429199999999999804e+00 7.386641420021769591e+04
2.471099999999999852e+00 7.454032641075045103e+04
2.512900000000000134e+00 7.994337089269455464e+04
2.554800000000000182e+00 9.105645354511562618e+04
2.596699999999999786e+00 1.018542272191123920e+05
2.638599999999999834e+00 1.027586641630216182e+05
2.680499999999999883e+00 9.547208446020945848e+04
2.722300000000000164e+00 8.334650888427910104e+04
2.764200000000000212e+00 7.245263068153656786e+04
2.806099999999999817e+00 6.764320315461422433e+04
2.847999999999999865e+00 6.852204568809634657e+04
2.889899999999999913e+00 7.268275673152407398e+04
2.931799999999999962e+00 7.844132087446395599e+04
2.973599999999999799e+00 8.360051717211415234e+04
3.015499999999999847e+00 8.489224047869989590e+04
3.057399999999999896e+00 8.611138842032293906e+04
3.099299999999999944e+00 9.176350261189985031e+04
3.141199999999999992e+00 1.025121893393270147e+05
3.183100000000000041e+00 1.182148306872349931e+05
3.224899999999999878e+00 1.382031895216513076e+05
3.266799999999999926e+00 1.597821868921576533e+05
3.308699999999999974e+00 1.817271097704137210e+05
3.350600000000000023e+00 2.033032042413525924e+05
3.392500000000000071e+00 2.222168708096566261e+05
3.434299999999999908e+00 2.358613174039833539e+05
3.476199999999999957e+00 2.487009552141778404e+05
3.518100000000000005e+00 2.626923903981937328e+05
3.560000000000000053e+00 2.771919223007410765e+05
3.601900000000000102e+00 2.968455306231066934e+05
3.643800000000000150e+00 3.211706416621929384e+05
3.685599999999999987e+00 3.437521994729479775e+05
3.727500000000000036e+00 3.612189198432916892e+05
3.769400000000000084e+00 3.755034862125041545e+05
3.811300000000000132e+00 3.893050755225903704e+05
3.853200000000000180e+00 4.003527677726008114e+05
3.895000000000000018e+00 4.067587365115889115e+05
3.936900000000000066e+00 4.123984829392222455e+05
3.978800000000000114e+00 4.231604558911888744e+05
4.020699999999999719e+00 4.369990635444687214e+05
4.062599999999999767e+00 4.461669603798862663e+05
4.104499999999999815e+00 4.509290572551773512e+05
4.146300000000000097e+00 4.537158240460382076e+05
4.188200000000000145e+00 4.490345208874142845e+05
4.230100000000000193e+00 4.387134645542575163e+05
4.272000000000000242e+00 4.318761839030960109e+05
4.313900000000000290e+00 4.313316469084606506e+05
4.355800000000000338e+00 4.351337065210465225e+05
4.397599999999999731e+00 4.396458671345807961e+05
4.439499999999999780e+00 4.397214328967725160e+05
4.481399999999999828e+00 4.375296371020321385e+05
4.523299999999999876e+00 4.400233788994914503e+05
4.565199999999999925e+00 4.506877539284663508e+05
4.607000000000000206e+00 4.680789286061835010e+05
4.648900000000000254e+00 4.892247432487925980e+05
4.690800000000000303e+00 5.087790312124761404e+05
4.732700000000000351e+00 5.247360190055745188e+05
4.774600000000000399e+00 5.432126581940029282e+05
4.816499999999999559e+00 5.669671434587823460e+05
4.858299999999999841e+00 5.926437431927901926e+05
4.900199999999999889e+00 6.168092090101203648e+05
4.942099999999999937e+00 6.404161505964535754e+05
4.983999999999999986e+00 6.624068790377959376e+05
5.025900000000000034e+00 6.737986827176306397e+05
5.067800000000000082e+00 6.726208582462671911e+05
5.109600000000000364e+00 6.626327047174113104e+05
5.151500000000000412e+00 6.441774181601435412e+05
5.193399999999999572e+00 6.143229253286366584e+05
5.235299999999999621e+00 5.772961681602926692e+05
5.277199999999999669e+00 5.467931762612633174e+05
5.318999999999999950e+00 5.346070347106122645e+05
5.360899999999999999e+00 5.399898726080659544e+05
5.402800000000000047e+00 5.511673993616317166e+05
5.444700000000000095e+00 5.580017831533310236e+05
5.486600000000000144e+00 5.544260569433287019e+05
5.528500000000000192e+00 5.423122010762734571e+05
5.570299999999999585e+00 5.265579622377615888e+05
5.612199999999999633e+00 5.114432070288937539e+05
5.654099999999999682e+00 5.030259226896541659e+05
5.695999999999999730e+00 5.036475803229356534e+05
5.737899999999999778e+00 5.132386435482930392e+05
5.779700000000000060e+00 5.300321015523552196e+05
5.821600000000000108e+00 5.568246510898504639e+05
5.863500000000000156e+00 5.953429012244972400e+05
5.905400000000000205e+00 6.389267807516664034e+05
5.947300000000000253e+00 6.798272228806599742e+05
5.989200000000000301e+00 7.130059032619027421e+05
6.030999999999999694e+00 7.385237676017959602e+05
6.072899999999999743e+00 7.625350683198331390e+05
6.114799999999999791e+00 7.896960160175279016e+05
6.156699999999999839e+00 8.156962170778990258e+05
6.198599999999999888e+00 8.386831099427543813e+05
6.240499999999999936e+00 8.535097989299003966e+05
6.282300000000000217e+00 8.539977030984881567e+05
6.324200000000000266e+00 8.483496857574571623e+05
6.366100000000000314e+00 8.422595346719245426e+05
6.408000000000000362e+00 8.298778991503133439e+05
6.449900000000000411e+00 8.090368984417807078e+05
6.491699999999999804e+00 7.823495200135384221e+05
6.533599999999999852e+00 7.569561186062163906e+05
6.575499999999999901e+00 7.372759957652075682e+05
6.617399999999999949e+00 7.225583598137013614e+05
6.659299999999999997e+00 7.117915562009162968e+05
6.701200000000000045e+00 7.043459209649518598e+05
6.743000000000000327e+00 7.021822654455187730e+05
6.784900000000000375e+00 7.101883471174875740e+05
6.826800000000000423e+00 7.214294087586428504e+05
6.868699999999999584e+00 7.226220424091708846e+05
6.910599999999999632e+00 7.167806532404227182e+05
6.952499999999999680e+00 7.138656971788094379e+05
6.994299999999999962e+00 7.165108800288941711e+05
7.036200000000000010e+00 7.247303204004862346e+05
7.078100000000000058e+00 7.396214452125593089e+05
7.120000000000000107e+00 7.639335412674356485e+05
7.161900000000000155e+00 7.928988811092075193e+05
7.203700000000000436e+00 8.142797868109439733e+05
7.245599999999999596e+00 8.203784803429906024e+05
7.287499999999999645e+00 8.132228856386092957e+05
7.329399999999999693e+00 7.995934225586792454e+05
7.371299999999999741e+00 7.845972057064253604e+05
7.413199999999999790e+00 7.721431391618809430e+05
7.455000000000000071e+00 7.631797587089039152e+05
7.496900000000000119e+00 7.563082947173985885e+05
7.538800000000000168e+00 7.522246638935053488e+05
7.580700000000000216e+00 7.503869730128723895e+05
7.622600000000000264e+00 7.486754300229415530e+05
7.664500000000000313e+00 7.490890423468921799e+05
7.706299999999999706e+00 7.518921867086302955e+05
7.748199999999999754e+00 7.580166710409623338e+05
7.790099999999999802e+00 7.719585914155037608e+05
7.831999999999999851e+00 7.917604290788857033e+05
7.873899999999999899e+00 8.092530267654919298e+05
7.915700000000000180e+00 8.191240588576750597e+05
7.957600000000000229e+00 8.194960141699635424e+05
7.999500000000000277e+00 8.133807890074729221e+05
8.041399999999999437e+00 8.060484818421276286e+05
8.083299999999999486e+00 8.025993221258089179e+05
8.125199999999999534e+00 8.095903473275279393e+05
8.166999999999999815e+00 8.305275007428809768e+05
8.208899999999999864e+00 8.604631266867446247e+05
8.250799999999999912e+00 8.905729676017067395e+05
8.292699999999999960e+00 9.163892072748772334e+05
8.334600000000000009e+00 9.333322330625114264e+05
8.376400000000000290e+00 9.422602364336985629e+05
8.418300000000000338e+00 9.515977056433749385e+05
8.460200000000000387e+00 9.626087840914704138e+05
8.502100000000000435e+00 9.713994108259214554e+05
8.544000000000000483e+00 9.784390331290554022e+05
8.585900000000000531e+00 9.876490463506645756e+05
8.627700000000000813e+00 1.001111832031599712e+06
8.669600000000000861e+00 1.016241136063831975e+06
8.711499999999999133e+00 1.027316107862324920e+06
8.753399999999999181e+00 1.029989607917867717e+06
8.795299999999999230e+00 1.026585648024740512e+06
8.837199999999999278e+00 1.022842868697931408e+06
8.878999999999999559e+00 1.021840925289413775e+06
8.920899999999999608e+00 1.023054892003685352e+06
8.962799999999999656e+00 1.025112957460850710e+06
9.004699999999999704e+00 1.029726973212317098e+06
9.046599999999999753e+00 1.035098539800312603e+06
9.088400000000000034e+00 1.035441856534405728e+06
9.130300000000000082e+00 1.028388111482009408e+06
9.172200000000000131e+00 1.016306515658237506e+06
9.214100000000000179e+00 1.002908271922443644e+06
9.256000000000000227e+00 9.880127827842968982e+05
9.297900000000000276e+00 9.694518312740017427e+05
9.339700000000000557e+00 9.474528613692036597e+05
9.381600000000000605e+00 9.244785263545481721e+05
9.423500000000000654e+00 9.070091520355005050e+05
9.465400000000000702e+00 9.017665931251556613e+05
9.507300000000000750e+00 9.072300258237397065e+05
9.549200000000000799e+00 9.152108761993454536e+05
9.590999999999999304e+00 9.212504565977989696e+05
9.632899999999999352e+00 9.251755427207000321e+05
9.674799999999999400e+00 9.249770760080076288e+05
9.716699999999999449e+00 9.229678412390287267e+05
9.758599999999999497e+00 9.226437408632918959e+05
9.800399999999999778e+00 9.220399632020107238e+05
9.842299999999999827e+00 9.179301063429679489e+05
9.884199999999999875e+00 9.068956868300100323e+05
9.926099999999999923e+00 8.884366603079843335e+05
9.967999999999999972e+00 8.674013253381847171e+05
1.000990000000000002e+01 8.501052187225956004e+05
1.005170000000000030e+01 8.400117519371687667e+05
1.009360000000000035e+01 8.341416446167737013e+05
1.013550000000000040e+01 8.316768284210467245e+05
1.017740000000000045e+01 8.377263923876580084e+05
1.021930000000000049e+01 8.552562759487187723e+05
1.026110000000000078e+01 8.799467403326478088e+05
1.030300000000000082e+01 9.001222583888756344e+05
1.034490000000000087e+01 9.095583420320099685e+05
1.038679999999999914e+01 9.112082093700275291e+05
1.042869999999999919e+01 9.122669731844430789e+05
1.047059999999999924e+01 9.182437583396258997e+05
1.051239999999999952e+01 9.261555655454084044e+05
1.055429999999999957e+01 9.286758086236976087e+05
1.059619999999999962e+01 9.222042089429676998e+05
1.063809999999999967e+01 9.097718960125059821e+05
1.067999999999999972e+01 8.984924935790834716e+05
1.072189999999999976e+01 8.950169984164506895e+05
1.076370000000000005e+01 9.008558393086815486e+05
1.080560000000000009e+01 9.110915128200239269e+05
1.084750000000000014e+01 9.161089487068292219e+05
1.088940000000000019e+01 9.132977004966128152e+05
1.093130000000000024e+01 9.075560991986386944e+05
1.097310000000000052e+01 9.036415202824395383e+05
1.101500000000000057e+01 9.000581986678952817e+05
1.105690000000000062e+01 8.906929041549352696e+05
1.109880000000000067e+01 8.749059407921681413e+05
1.114070000000000071e+01 8.591043841958917910e+05
1.118260000000000076e+01 8.496362034551525721e+05
1.122439999999999927e+01 8.470716354075146373e+05
1.126629999999999932e+01 8.502360845734516624e+05
1.130819999999999936e+01 8.598107490507393377e+05
1.135009999999999941e+01 8.777006881135838339e+05
1.139199999999999946e+01 8.986995133806514787e+05
1.143389999999999951e+01 9.187746837209622608e+05
1.147569999999999979e+01 9.393210270432493417e+05
1.151759999999999984e+01 9.572049626344438875e+05
1.155949999999999989e+01 9.653680140552771045e+05
1.160139999999999993e+01 9.631393335627174238e+05
1.164329999999999998e+01 9.533510933379584458e+05
1.168510000000000026e+01 9.425439860526996199e+05
1.172700000000000031e+01 9.359701563927578973e+05
1.176890000000000036e+01 9.340948800700143911e+05
1.181080000000000041e+01 9.369244640799602494e+05
1.185270000000000046e+01 9.425600514788707951e+05
1.189460000000000051e+01 9.479988048438086407e+05
1.193640000000000079e+01 9.502685385848107981e+05
1.197830000000000084e+01 9.460535539397591492e+05
1.202020000000000088e+01 9.335788512815302238e+05
1.206209999999999916e+01 9.156329936386001064e+05
1.210399999999999920e+01 8.975773017026234884e+05
1.214589999999999925e+01 8.833584553240513196e+05
1.218769999999999953e+01 8.690289698972934857e+05
1.222959999999999958e+01 8.502933047137049725e+05
1.227149999999999963e+01 8.317111840574800735e+05
1.231339999999999968e+01 8.204002137739936588e+05
1.235529999999999973e+01 8.173067436186620034e+05
1.239710000000000001e+01 8.160862706224669237e+05
1.243900000000000006e+01 8.126585888285533292e+05
1.248090000000000011e+01 8.076708548001688905e+05
1.252280000000000015e+01 7.968533875166343059e+05
1.256470000000000020e+01 7.768889681414905936e+05
1.260660000000000025e+01 7.560000998109501088e+05
1.264840000000000053e+01 7.435428499774922384e+05
1.269030000000000058e+01 7.401829272933214670e+05
1.273220000000000063e+01 7.409629180093390169e+05
1.277410000000000068e+01 7.378956126500801183e+05
1.281600000000000072e+01 7.276653148268576479e+05
1.285779999999999923e+01 7.125743486775086494e+05
1.289969999999999928e+01 6.968410710532191442e+05
1.294159999999999933e+01 6.846582361531327479e+05
1.298349999999999937e+01 6.794889726652322570e+05
1.302539999999999942e+01 6.798964671145338798e+05
1.306729999999999947e+01 6.812339074882556451e+05
1.310909999999999975e+01 6.783758703302107751e+05
1.315099999999999980e+01 6.659330045304786181e+05
1.319289999999999985e+01 6.462506757976915687e+05
1.323479999999999990e+01 6.246344053651125869e+05
1.327669999999999995e+01 6.036269856998306932e+05
1.331859999999999999e+01 5.821708510587705532e+05
1.336040000000000028e+01 5.613441447767730569e+05
1.340230000000000032e+01 5.424915109754180303e+05
1.344420000000000037e+01 5.261437881159804529e+05
1.348610000000000042e+01 5.135007675701933331e+05
1.352800000000000047e+01 5.048201569057669840e+05
1.356980000000000075e+01 4.979207333874941105e+05
1.361170000000000080e+01 4.891464012192778173e+05
1.365360000000000085e+01 4.766375058252610033e+05
1.369549999999999912e+01 4.654389673448486137e+05
1.373739999999999917e+01 4.617324259683329728e+05
1.377929999999999922e+01 4.641656815592600615e+05
1.382109999999999950e+01 4.686024475713318679e+05
1.386299999999999955e+01 4.730117474161515129e+05
1.390489999999999959e+01 4.777412973746328498e+05
1.394679999999999964e+01 4.823546320498537389e+05
1.398869999999999969e+01 4.870451689299780410e+05
1.403059999999999974e+01 4.942130791060588672e+05
1.407240000000000002e+01 5.031113917542551644e+05
1.411430000000000007e+01 5.133317500813161023e+05
1.415620000000000012e+01 5.277612496575654950e+05
1.419810000000000016e+01 5.448250136904928368e+05
1.424000000000000021e+01 5.589803624122511828e+05
1.428180000000000049e+01 5.664777786677995464e+05
1.432370000000000054e+01 5.616196532218074426e+05
1.436560000000000059e+01 5.466370560576987918e+05
1.440750000000000064e+01 5.293777952472086763e+05
1.444940000000000069e+01 5.135281895558536635e+05
1.449130000000000074e+01 4.989690886248365860e+05
1.453309999999999924e+01 4.875126121706023114e+05
1.457499999999999929e+01 4.791439961464844528e+05
1.461689999999999934e+01 4.734219188663417008e+05
1.465879999999999939e+01 4.726289059365752037e+05
1.470069999999999943e+01 4.784307909659461002e+05
1.474249999999999972e+01 4.929616017149699619e+05
1.478439999999999976e+01 5.130182735284115188e+05
1.482629999999999981e+01 5.316964274933560519e+05
1.486819999999999986e+01 5.429844327757075662e+05
1.491009999999999991e+01 5.436588543290978996e+05
1.495199999999999996e+01 5.389656491061286069e+05
1.499380000000000024e+01 5.318206677368866513e+05
1.503570000000000029e+01 5.236022061386095593e+05
1.507760000000000034e+01 5.193614185219746432e+05
1.511950000000000038e+01 5.256901309956021141e+05
1.516140000000000043e+01 5.427769912619399838e+05
1.520330000000000048e+01 5.650004318836303428e+05
1.524510000000000076e+01 5.792404723002583487e+05
1.528700000000000081e+01 5.773987008562481496e+05
1.532890000000000086e+01 5.648416747902934439e+05
1.537079999999999913e+01 5.445406845485733356e+05
1.541269999999999918e+01 5.239950338328955113e+05
1.545449999999999946e+01 5.122054970280386624e+05
1.549639999999999951e+01 5.082684044443367748e+05
1.553829999999999956e+01 5.043524476914289990e+05
1.558019999999999960e+01 4.906515668167434051e+05
1.562209999999999965e+01 4.709560793034184026e+05
1.566399999999999970e+01 4.538174012038443470e+05
1.570579999999999998e+01 4.413012697631244664e+05
1.574770000000000003e+01 4.322277098956117989e+05
1.578960000000000008e+01 4.301414969916802365e+05
1.583150000000000013e+01 4.362575464323950000e+05
1.587340000000000018e+01 4.433696651195425657e+05
1.591530000000000022e+01 4.493381046008483390e+05
1.595710000000000051e+01 4.588686808146543917e+05
1.599900000000000055e+01 4.706141170539906598e+05
1.604090000000000060e+01 4.793372614107290865e+05
1.608279999999999887e+01 4.812549525665476685e+05
1.612470000000000070e+01 4.809159750873778248e+05
1.616649999999999920e+01 4.811520637570454855e+05
1.620840000000000103e+01 4.810923887136324774e+05
1.625029999999999930e+01 4.800354108606342343e+05
1.629220000000000113e+01 4.853848314765825635e+05
1.633409999999999940e+01 5.110072621018730570e+05
1.637600000000000122e+01 5.540251164904033067e+05
1.641779999999999973e+01 5.969992558584440267e+05
1.645970000000000155e+01 6.334326198653248139e+05
1.650159999999999982e+01 6.602439078268359881e+05
1.654350000000000165e+01 6.767085770770156523e+05
1.658539999999999992e+01 6.827318645001074765e+05
1.662730000000000175e+01 6.789705058603917714e+05
1.666910000000000025e+01 6.739000206685451558e+05
