# energy(eV) alpha
0.000000000000000000e+00 0.000000000000000000e+00
4.070000000000000007e-02 5.564567080851782199e-01
8.129999999999999727e-02 2.445294829216337007e+00
1.219999999999999973e-01 5.336961791174995362e+00
1.627000000000000113e-01 9.488817438352354472e+00
2.033999999999999975e-01 1.501126655012156697e+01
2.439999999999999947e-01 2.133863429474460460e+01
2.847000000000000086e-01 2.956034284518218413e+01
3.254000000000000226e-01 3.822269529281975764e+01
3.660999999999999810e-01 4.899042866593827483e+01
4.067000000000000060e-01 5.995852664771217633e+01
4.474000000000000199e-01 7.326310429258489876e+01
4.880999999999999783e-01 8.700100853833750136e+01
5.286999999999999478e-01 1.023698676550010447e+02
5.694000000000000172e-01 1.195154530466070639e+02
6.100999999999999757e-01 1.379709681942855468e+02
6.508000000000000451e-01 1.577359549319785401e+02
6.914000000000000146e-01 1.787763279814365944e+02
7.320999999999999730e-01 2.011418878107900241e+02
7.728000000000000425e-01 2.248013692313906233e+02
8.135000000000000009e-01 2.504852673296896910e+02
8.540999999999999703e-01 2.767223683405133556e+02
8.948000000000000398e-01 3.058854433552852470e+02
9.354999999999999982e-01 3.356215171731271312e+02
9.760999999999999677e-01 3.684210912485721678e+02
1.016799999999999926e+00 4.027283696903712098e+02
1.057500000000000107e+00 4.385031905221395618e+02
1.098200000000000065e+00 4.757422865436168991e+02
1.138800000000000034e+00 5.143837746689706591e+02
1.179499999999999993e+00 5.576848218402369639e+02
1.220199999999999951e+00 6.004437180910373399e+02
1.260899999999999910e+00 6.458200392463974140e+02
1.301500000000000101e+00 6.950338546827017581e+02
1.342200000000000060e+00 7.447695086529645323e+02
1.382900000000000018e+00 7.998053391899979943e+02
1.423499999999999988e+00 8.527594975799873964e+02
1.464199999999999946e+00 9.125667801750047374e+02
1.504899999999999904e+00 9.755373263427029542e+02
1.545600000000000085e+00 1.039008392232423375e+03
1.586200000000000054e+00 1.107015198050927211e+03
1.626900000000000013e+00 1.176995822878463287e+03
1.667599999999999971e+00 1.253286483913110033e+03
1.708299999999999930e+00 1.331645653107215367e+03
1.748899999999999899e+00 1.413501009769260918e+03
1.789600000000000080e+00 1.500649194167267069e+03
1.830300000000000038e+00 1.591601888012929749e+03
1.870900000000000007e+00 1.684654972109018900e+03
1.911599999999999966e+00 1.788348561948457700e+03
1.952299999999999924e+00 1.896214586986858876e+03
1.993000000000000105e+00 2.006557239742409593e+03
2.033599999999999852e+00 2.124563001217040437e+03
2.074300000000000033e+00 2.250633751809892146e+03
2.115000000000000213e+00 2.381246460275483514e+03
2.155699999999999950e+00 2.523867634765501407e+03
2.196299999999999919e+00 2.671247025243110784e+03
2.237000000000000099e+00 2.831273540686625893e+03
2.277699999999999836e+00 2.996431054642123399e+03
2.318299999999999805e+00 3.178453402984715012e+03
2.358999999999999986e+00 3.370091033619756672e+03
2.399700000000000166e+00 3.573351927426128441e+03
2.440399999999999903e+00 3.792646942419119114e+03
2.480999999999999872e+00 4.030244722887242915e+03
2.521700000000000053e+00 4.286847499920786504e+03
2.562399999999999789e+00 4.564857623829188014e+03
2.603099999999999969e+00 4.864694887141592517e+03
2.643699999999999939e+00 5.197501676840363871e+03
2.684400000000000119e+00 5.559909588567585160e+03
2.725099999999999856e+00 5.967980989731798218e+03
2.765699999999999825e+00 6.417737848861208477e+03
2.806400000000000006e+00 6.930931377063677246e+03
2.847100000000000186e+00 7.517600958906275991e+03
2.887799999999999923e+00 8.199889982624283221e+03
2.928399999999999892e+00 9.021356547500032320e+03
2.969100000000000072e+00 1.003210487366995221e+04
3.009799999999999809e+00 1.133518917525555480e+04
3.050499999999999989e+00 1.307076066822790199e+04
3.091099999999999959e+00 1.546982914923857425e+04
3.131800000000000139e+00 1.858496669084696623e+04
3.172499999999999876e+00 2.166946971811705225e+04
3.213099999999999845e+00 2.377361456210164397e+04
3.253800000000000026e+00 2.544674046242068653e+04
3.294500000000000206e+00 2.769271598163296949e+04
3.335199999999999942e+00 3.170046302735011341e+04
3.375799999999999912e+00 3.821423114315660496e+04
3.416500000000000092e+00 4.638635751500426704e+04
3.457199999999999829e+00 5.403103547152481042e+04
3.497900000000000009e+00 6.000305932239230606e+04
3.538499999999999979e+00 6.476481328319334716e+04
3.579200000000000159e+00 7.018948238439271518e+04
3.619899999999999896e+00 7.882490001200273400e+04
3.660499999999999865e+00 8.897189478889295424e+04
3.701200000000000045e+00 9.819766421052264923e+04
3.741899999999999782e+00 1.104803980850144726e+05
3.782599999999999962e+00 1.254066623123560566e+05
3.823199999999999932e+00 1.352992577587794513e+05
3.863900000000000112e+00 1.392553839988323743e+05
3.904599999999999849e+00 1.423142059773872024e+05
3.945300000000000029e+00 1.471767327876352356e+05
3.985899999999999999e+00 1.512981802064805233e+05
4.026600000000000179e+00 1.538676728522801423e+05
4.067300000000000360e+00 1.572000948353914137e+05
4.107899999999999885e+00 1.634270499623121577e+05
4.148600000000000065e+00 1.759201735789017694e+05
4.189300000000000246e+00 1.950050341881241766e+05
4.230000000000000426e+00 2.193992593646985479e+05
4.270599999999999952e+00 2.517928159527070238e+05
4.311300000000000132e+00 2.911931761355629424e+05
4.352000000000000313e+00 3.304226774500863394e+05
4.392699999999999605e+00 3.663877511676359572e+05
4.433300000000000018e+00 3.978415586640979745e+05
4.474000000000000199e+00 4.179943443037850084e+05
4.514700000000000379e+00 4.273843365348752122e+05
4.555299999999999905e+00 4.291016135865676915e+05
4.596000000000000085e+00 4.194757550863100332e+05
4.636700000000000266e+00 4.036676206818212522e+05
4.677399999999999558e+00 3.929508023273368017e+05
4.717999999999999972e+00 3.887019543990022503e+05
4.758700000000000152e+00 3.867714772542021819e+05
4.799400000000000333e+00 3.870265609564768965e+05
4.840099999999999625e+00 3.864526924335960066e+05
4.880700000000000038e+00 3.837337653164000367e+05
4.921400000000000219e+00 3.840655354562431457e+05
4.962100000000000399e+00 3.900609020694889477e+05
5.002699999999999925e+00 3.998569953500648844e+05
5.043400000000000105e+00 4.105859368736288161e+05
5.084100000000000286e+00 4.179883604463697993e+05
5.124799999999999578e+00 4.184947944861325086e+05
5.165399999999999991e+00 4.156562827274029842e+05
5.206100000000000172e+00 4.185967316045652260e+05
5.246800000000000352e+00 4.326113649231960298e+05
5.287499999999999645e+00 4.585343889054603060e+05
5.328100000000000058e+00 4.974111015616063960e+05
5.368800000000000239e+00 5.449944474417368183e+05
5.409500000000000419e+00 5.908357144882093417e+05
5.450099999999999945e+00 6.349185489495157963e+05
5.490800000000000125e+00 6.808164432131642243e+05
5.531500000000000306e+00 7.216293007026368286e+05
5.572199999999999598e+00 7.464255761149972677e+05
5.612800000000000011e+00 7.499267266425862908e+05
5.653500000000000192e+00 7.302819748189843958e+05
5.694200000000000372e+00 6.873770361420935951e+05
5.734899999999999665e+00 6.303119769625145709e+05
5.775500000000000078e+00 5.761251510922294110e+05
5.816200000000000259e+00 5.384892063105633715e+05
5.856900000000000439e+00 5.183354821650107042e+05
5.897499999999999964e+00 5.096059374617020367e+05
5.938200000000000145e+00 5.115829075046641519e+05
5.978900000000000325e+00 5.251954302587714046e+05
6.019599999999999618e+00 5.502921451037790393e+05
6.060200000000000031e+00 5.784312717454002704e+05
6.100900000000000212e+00 5.983628068735098932e+05
6.141600000000000392e+00 6.102337635431454983e+05
6.182299999999999685e+00 6.160411667197566712e+05
6.222900000000000098e+00 6.103267923660064116e+05
6.263600000000000279e+00 5.913899521923135035e+05
6.304299999999999571e+00 5.665810629854395520e+05
6.344899999999999984e+00 5.477627530755110784e+05
6.385600000000000165e+00 5.462673870557724731e+05
6.426300000000000345e+00 5.671038934796691174e+05
6.466999999999999638e+00 6.039333406033273786e+05
6.507600000000000051e+00 6.467797584065772826e+05
6.548300000000000232e+00 6.892594409903429914e+05
6.589000000000000412e+00 7.237198742708428763e+05
6.629699999999999704e+00 7.402253649207896087e+05
6.670300000000000118e+00 7.398390624119181884e+05
6.711000000000000298e+00 7.316433008007735480e+05
6.751699999999999591e+00 7.237858533610905288e+05
6.792300000000000004e+00 7.256393567467418034e+05
6.833000000000000185e+00 7.413122011843450600e+05
6.873700000000000365e+00 7.625665309382777195e+05
6.914399999999999658e+00 7.787900683114397107e+05
6.955000000000000071e+00 7.859565462985163322e+05
6.995700000000000252e+00 7.850492882539477432e+05
7.036400000000000432e+00 7.820365118781448109e+05
7.077099999999999724e+00 7.832407350003924221e+05
7.117700000000000138e+00 7.918960405255289515e+05
7.158400000000000318e+00 8.045168795853760093e+05
7.199099999999999611e+00 8.095551582282015588e+05
7.239700000000000024e+00 7.941033588784385938e+05
7.280400000000000205e+00 7.637930266151182586e+05
7.321100000000000385e+00 7.339841266889468534e+05
7.361799999999999677e+00 7.091370906906446908e+05
7.402400000000000091e+00 6.901713554117328022e+05
7.443100000000000271e+00 6.774464948933102423e+05
7.483799999999999564e+00 6.647606146119365003e+05
7.524499999999999744e+00 6.422247271342360182e+05
7.565100000000000158e+00 6.101963744296916993e+05
7.605800000000000338e+00 5.782293621715722838e+05
7.646499999999999631e+00 5.530804657042240724e+05
7.687100000000000044e+00 5.336014625434087357e+05
7.727800000000000225e+00 5.193907770685161231e+05
7.768500000000000405e+00 5.114144254398016492e+05
7.809199999999999697e+00 5.095655281943819136e+05
7.849800000000000111e+00 5.137544648286816082e+05
7.890500000000000291e+00 5.251951829943719786e+05
7.931199999999999584e+00 5.449262623772422085e+05
7.971899999999999764e+00 5.686879914203954395e+05
8.012499999999999289e+00 5.902497839875736972e+05
8.053200000000000358e+00 6.099278814834457589e+05
8.093899999999999650e+00 6.315742772316457704e+05
8.134499999999999176e+00 6.534623412993811071e+05
8.175200000000000244e+00 6.741627562849187525e+05
8.215899999999999537e+00 6.920267349344323156e+05
8.256600000000000605e+00 7.047831245203161379e+05
8.297200000000000131e+00 7.081293542504739016e+05
8.337899999999999423e+00 7.027321873826467199e+05
8.378600000000000492e+00 6.946989395789883565e+05
8.419299999999999784e+00 6.851433767298967578e+05
8.459899999999999309e+00 6.757960390705928439e+05
8.500600000000000378e+00 6.685640882531612879e+05
8.541299999999999670e+00 6.577865163478100440e+05
8.581899999999999196e+00 6.394596008089854149e+05
8.622600000000000264e+00 6.173645443898877129e+05
8.663299999999999557e+00 5.977497317341970047e+05
8.704000000000000625e+00 5.838419207176372875e+05
8.744600000000000151e+00 5.773621904856280889e+05
8.785299999999999443e+00 5.787307334629116813e+05
8.826000000000000512e+00 5.858421417161998106e+05
8.866699999999999804e+00 5.933577717800056562e+05
8.907299999999999329e+00 5.964392132540885359e+05
8.948000000000000398e+00 5.918917265395573340e+05
8.988699999999999690e+00 5.809401313925227150e+05
9.029299999999999216e+00 5.712277262674822705e+05
9.070000000000000284e+00 5.663506817037436413e+05
9.110699999999999577e+00 5.650840978598995134e+05
9.151400000000000645e+00 5.673943688040933339e+05
9.192000000000000171e+00 5.724071635818666546e+05
9.232699999999999463e+00 5.769183836528453976e+05
9.273400000000000531e+00 5.775999751073787920e+05
9.314099999999999824e+00 5.760695605709652882e+05
9.354699999999999349e+00 5.780876166154398816e+05
9.395400000000000418e+00 5.876040600243367953e+05
9.436099999999999710e+00 6.040326948488666676e+05
9.476699999999999235e+00 6.224501646953485906e+05
9.517400000000000304e+00 6.366834831760472152e+05
9.558099999999999596e+00 6.496472747520983685e+05
9.598800000000000665e+00 6.742592372761268634e+05
9.639400000000000190e+00 7.171640908144856803e+05
9.680099999999999483e+00 7.735194676090943394e+05
9.720800000000000551e+00 8.337878794284813339e+05
9.761499999999999844e+00 8.851951017933889525e+05
9.802099999999999369e+00 9.208188196337361587e+05
9.842800000000000438e+00 9.388684949867536779e+05
9.883499999999999730e+00 9.435154504945788067e+05
9.924099999999999255e+00 9.433470497131641023e+05
9.964800000000000324e+00 9.418435470141343540e+05
1.000549999999999962e+01 9.338317897629786748e+05
1.004620000000000068e+01 9.150202568254765356e+05
1.008680000000000021e+01 8.850670572393568000e+05
1.012749999999999950e+01 8.500278844506745227e+05
1.016820000000000057e+01 8.199928819949396420e+05
1.020889999999999986e+01 7.980997660569924628e+05
1.024949999999999939e+01 7.811025383356802631e+05
1.029020000000000046e+01 7.715070538492945489e+05
1.033089999999999975e+01 7.770204322928480105e+05
1.037149999999999928e+01 7.945775083553801524e+05
1.041220000000000034e+01 8.100920560272221919e+05
1.045289999999999964e+01 8.166728407486821525e+05
1.049360000000000070e+01 8.120785748223109404e+05
1.053420000000000023e+01 8.013364783017963637e+05
1.057489999999999952e+01 7.954965847782307537e+05
1.061560000000000059e+01 7.996583411068555433e+05
1.065629999999999988e+01 8.117424117993013933e+05
1.069689999999999941e+01 8.260768838907642057e+05
1.073760000000000048e+01 8.348841853350382298e+05
1.077829999999999977e+01 8.311758092862938065e+05
1.081889999999999930e+01 8.203795480745590758e+05
1.085960000000000036e+01 8.146854582170600770e+05
1.090029999999999966e+01 8.178670505778702209e+05
1.094100000000000072e+01 8.254517035243408754e+05
1.098160000000000025e+01 8.302204305526048411e+05
1.102229999999999954e+01 8.336913307428656844e+05
1.106300000000000061e+01 8.428479445220987545e+05
1.110369999999999990e+01 8.572734005537680350e+05
1.114429999999999943e+01 8.702944067305158824e+05
1.118500000000000050e+01 8.788249832174933981e+05
1.122569999999999979e+01 8.804740674755715299e+05
1.126629999999999932e+01 8.785290776149828453e+05
1.130700000000000038e+01 8.776835697248992510e+05
1.134769999999999968e+01 8.784371949323939625e+05
1.138840000000000074e+01 8.787104007058767602e+05
1.142900000000000027e+01 8.772596216210993007e+05
1.146969999999999956e+01 8.736601623239220353e+05
1.151040000000000063e+01 8.703320019375553820e+05
1.155109999999999992e+01 8.708551954431494232e+05
1.159169999999999945e+01 8.748401757524532732e+05
1.163240000000000052e+01 8.765306199895297177e+05
1.167309999999999981e+01 8.735505183555500116e+05
1.171369999999999933e+01 8.689891716998434858e+05
1.175440000000000040e+01 8.643360809074175777e+05
1.179509999999999970e+01 8.592251262780337129e+05
1.183580000000000076e+01 8.549107738808800932e+05
1.187640000000000029e+01 8.512139963913164102e+05
1.191709999999999958e+01 8.431325834188872250e+05
1.195780000000000065e+01 8.248562343964851461e+05
1.199849999999999994e+01 8.013414997134472942e+05
1.203909999999999947e+01 7.833150520446782466e+05
1.207980000000000054e+01 7.693125772754532518e+05
1.212049999999999983e+01 7.524978336203653598e+05
1.216109999999999935e+01 7.302235818058957811e+05
1.220180000000000042e+01 7.025826247831752989e+05
1.224249999999999972e+01 6.754864779036138207e+05
1.228320000000000078e+01 6.519002916232340503e+05
1.232380000000000031e+01 6.318417897570094792e+05
1.236449999999999960e+01 6.181649643852951704e+05
1.240520000000000067e+01 6.142219247471449198e+05
1.244589999999999996e+01 6.203873227360724704e+05
1.248649999999999949e+01 6.343167799419644289e+05
1.252720000000000056e+01 6.533306786854369566e+05
1.256789999999999985e+01 6.739978639665825758e+05
1.260849999999999937e+01 6.925391043842383660e+05
1.264920000000000044e+01 7.057472083503651666e+05
1.268989999999999974e+01 7.128712420119914459e+05
1.273060000000000080e+01 7.180151334232414374e+05
1.277120000000000033e+01 7.237063250334738987e+05
1.281189999999999962e+01 7.292131806543495040e+05
1.285260000000000069e+01 7.378952985345285852e+05
1.289329999999999998e+01 7.547781555191092193e+05
1.293389999999999951e+01 7.751973402670430951e+05
1.297460000000000058e+01 7.887233063087378396e+05
1.301529999999999987e+01 7.963880928671093425e+05
1.305589999999999939e+01 8.088748564246474998e+05
1.309660000000000046e+01 8.309459814264003653e+05
1.313729999999999976e+01 8.556912161605220754e+05
1.317800000000000082e+01 8.782709883397321682e+05
1.321860000000000035e+01 8.963130564979586052e+05
1.325929999999999964e+01 9.050332718206662685e+05
1.330000000000000071e+01 9.061386246241573244e+05
1.334070000000000000e+01 9.028359783834768459e+05
1.338129999999999953e+01 8.941481904490608722e+05
1.342200000000000060e+01 8.817037356427495833e+05
1.346269999999999989e+01 8.663858716618304607e+05
1.350329999999999941e+01 8.462154664257107070e+05
1.354400000000000048e+01 8.198766262364907889e+05
1.358469999999999978e+01 7.887888715304018697e+05
1.362540000000000084e+01 7.620352894865095150e+05
1.366600000000000037e+01 7.467243073249184527e+05
1.370669999999999966e+01 7.402614927329769125e+05
1.374740000000000073e+01 7.371697317482484505e+05
1.378810000000000002e+01 7.332701033928528195e+05
1.382869999999999955e+01 7.309883512783590704e+05
1.386940000000000062e+01 7.352506458972052205e+05
1.391009999999999991e+01 7.437719302311574575e+05
1.395069999999999943e+01 7.480971173340548994e+05
1.399140000000000050e+01 7.401008603839499410e+05
1.403209999999999980e+01 7.188728081828423310e+05
1.407280000000000086e+01 6.915001196250788635e+05
1.411340000000000039e+01 6.667428204867093591e+05
1.415409999999999968e+01 6.491245032774123829e+05
1.419480000000000075e+01 6.380816604514979990e+05
1.423550000000000004e+01 6.325247068372797221e+05
1.427609999999999957e+01 6.311452228864347562e+05
1.431680000000000064e+01 6.324472270580908516e+05
1.435749999999999993e+01 6.346673850657689618e+05
1.439809999999999945e+01 6.319492604512276594e+05
1.443880000000000052e+01 6.184163556890670443e+05
1.447949999999999982e+01 5.983723146181682823e+05
1.452020000000000088e+01 5.813428761255831923e+05
1.456080000000000041e+01 5.679898476018860238e+05
1.460149999999999970e+01 5.540434313468603650e+05
1.464220000000000077e+01 5.415889338598309550e+05
1.468290000000000006e+01 5.350941752515351400e+05
1.472349999999999959e+01 5.362063321914041881e+05
1.476420000000000066e+01 5.449515352441462455e+05
1.480489999999999995e+01 5.577531237554639811e+05
1.484549999999999947e+01 5.700301560872114496e+05
1.488620000000000054e+01 5.812346872946401127e+05
1.492689999999999984e+01 5.980231612682811683e+05
1.496759999999999913e+01 6.166268848115804140e+05
1.500820000000000043e+01 6.248084302761135623e+05
1.504889999999999972e+01 6.194389977250861702e+05
1.508960000000000079e+01 6.093643500085800188e+05
1.513030000000000008e+01 6.100988191366969841e+05
1.517089999999999961e+01 6.313349274055270944e+05
1.521160000000000068e+01 6.697143855830187676e+05
1.525229999999999997e+01 7.150372324500839459e+05
1.529289999999999949e+01 7.524767900285654468e+05
1.533360000000000056e+01 7.731098077974712942e+05
1.537429999999999986e+01 7.761112242232426070e+05
1.541499999999999915e+01 7.621461541953900596e+05
1.545560000000000045e+01 7.390354187479766551e+05
1.549629999999999974e+01 7.221886771246803692e+05
1.553700000000000081e+01 7.188337149547535228e+05
1.557770000000000010e+01 7.251541552481350955e+05
1.561829999999999963e+01 7.351805807570266770e+05
1.565900000000000070e+01 7.421651314669236308e+05
1.569969999999999999e+01 7.414902523926286958e+05
1.574029999999999951e+01 7.368155445314102108e+05
1.578100000000000058e+01 7.319208744806929026e+05
1.582169999999999987e+01 7.287748405107620638e+05
1.586239999999999917e+01 7.241621791801379295e+05
1.590300000000000047e+01 7.171540006914485712e+05
1.594369999999999976e+01 7.112767277246045414e+05
1.598440000000000083e+01 7.092091885521088261e+05
1.602509999999999835e+01 7.157778924787010765e+05
1.606569999999999965e+01 7.328583281917611603e+05
1.610640000000000072e+01 7.627865970908385934e+05
1.614709999999999823e+01 8.053272738843940897e+05
1.618769999999999953e+01 8.503815941340473946e+05
