# energy(eV) alpha
0.000000000000000000e+00 0.000000000000000000e+00
4.730000000000000177e-02 5.475216883205499263e-01
9.470000000000000639e-02 1.918289063316519272e+00
1.419999999999999873e-01 4.519794998983942769e+00
1.894000000000000128e-01 7.671905432860280705e+00
2.366999999999999937e-01 1.232563686907637468e+01
2.839999999999999747e-01 1.725093173289449666e+01
3.313999999999999724e-01 2.396015491649844265e+01
3.786999999999999811e-01 3.175400343175418172e+01
4.260999999999999788e-01 3.941556420467672694e+01
4.733999999999999875e-01 4.925200966455364693e+01
5.207000000000000517e-01 6.017466463518432107e+01
5.681000000000000494e-01 7.164729776556291085e+01
6.153999999999999471e-01 8.350880211414869336e+01
6.627999999999999448e-01 9.755798311111706766e+01
7.100999999999999535e-01 1.126714725201957492e+02
7.573999999999999622e-01 1.288609951567036376e+02
8.047999999999999599e-01 1.461414925341295827e+02
8.520999999999999686e-01 1.644722784037741690e+02
8.994999999999999662e-01 1.838898289726863595e+02
9.467999999999999750e-01 2.043511687512473713e+02
9.940999999999999837e-01 2.277758587124886276e+02
1.041500000000000092e+00 2.514588334045238298e+02
1.088799999999999990e+00 2.752184377003337659e+02
1.136200000000000099e+00 3.033101722575365216e+02
1.183499999999999996e+00 3.292880138468830182e+02
1.230799999999999894e+00 3.598295411229123602e+02
1.278200000000000003e+00 3.916982159764031053e+02
1.325499999999999901e+00 4.235570308174056322e+02
1.372900000000000009e+00 4.579527592890322580e+02
1.420199999999999907e+00 4.949456757806688643e+02
1.467500000000000027e+00 5.318945741691063631e+02
1.514899999999999913e+00 5.730108878693440602e+02
1.562200000000000033e+00 6.140384670757715639e+02
1.609599999999999920e+00 6.594861715947546372e+02
1.656900000000000039e+00 7.048069615291703940e+02
1.704199999999999937e+00 7.547491811949564635e+02
1.751600000000000046e+00 8.079339462918497929e+02
1.798899999999999944e+00 8.593080867884448253e+02
1.846300000000000052e+00 9.173931229579843603e+02
1.893599999999999950e+00 9.770955230440119976e+02
1.940900000000000070e+00 1.042106683917410464e+03
1.988299999999999956e+00 1.107128290794929853e+03
2.035600000000000076e+00 1.177600161136922907e+03
2.083000000000000185e+00 1.253888834698757137e+03
2.130300000000000082e+00 1.330103839585802234e+03
2.177599999999999980e+00 1.416351344708619081e+03
2.225000000000000089e+00 1.500685819283804449e+03
2.272299999999999986e+00 1.593268111364897777e+03
2.319599999999999884e+00 1.692367243345801171e+03
2.366999999999999993e+00 1.796032079655292819e+03
2.414299999999999891e+00 1.906436783317049276e+03
2.461699999999999999e+00 2.021652245760133155e+03
2.508999999999999897e+00 2.150822417123541527e+03
2.556299999999999795e+00 2.285162763386655570e+03
2.603699999999999903e+00 2.427192475994256256e+03
2.650999999999999801e+00 2.581721302416184699e+03
2.698399999999999910e+00 2.749282544331866575e+03
2.745699999999999807e+00 2.925087831856965749e+03
2.793000000000000149e+00 3.116874059106378354e+03
2.840399999999999814e+00 3.325213022314037062e+03
2.887700000000000156e+00 3.552855433542276387e+03
2.935099999999999820e+00 3.800472974373355100e+03
2.982400000000000162e+00 4.073626816595307446e+03
3.029700000000000060e+00 4.375687176145296689e+03
3.077100000000000168e+00 4.707343680009867967e+03
3.124400000000000066e+00 5.077181941158216432e+03
3.171800000000000175e+00 5.489013228366808107e+03
3.219100000000000072e+00 5.957279091948090354e+03
3.266399999999999970e+00 6.494496621350693204e+03
3.313800000000000079e+00 7.107784014879965980e+03
3.361099999999999977e+00 7.826587333610232236e+03
3.408500000000000085e+00 8.673032223708669335e+03
3.455799999999999983e+00 9.701068402887822231e+03
3.503099999999999881e+00 1.097468252215672146e+04
3.550499999999999989e+00 1.260920311470291381e+04
3.597799999999999887e+00 1.479237061945811911e+04
3.645199999999999996e+00 1.786156742676534486e+04
3.692499999999999893e+00 2.220228862710621979e+04
3.739799999999999791e+00 2.748943770066432262e+04
3.787199999999999900e+00 3.238004664659469927e+04
3.834499999999999797e+00 3.679535170656989794e+04
3.881899999999999906e+00 4.228419744289324444e+04
3.929199999999999804e+00 5.090393952376589732e+04
3.976500000000000146e+00 6.610713670362214907e+04
4.023900000000000254e+00 9.217185861009474320e+04
4.071200000000000152e+00 1.307462058873625356e+05
4.118599999999999817e+00 1.755261134084842924e+05
4.165899999999999714e+00 2.163180071870552492e+05
4.213199999999999612e+00 2.463086899395408400e+05
4.260600000000000165e+00 2.578892253896989278e+05
4.307900000000000063e+00 2.479112258666881244e+05
4.355299999999999727e+00 2.239909459642690490e+05
4.402599999999999625e+00 1.958947736738411768e+05
4.449900000000000411e+00 1.677608495022458374e+05
4.497300000000000075e+00 1.433614972680768406e+05
4.544599999999999973e+00 1.280288549419985065e+05
4.591999999999999638e+00 1.209243760098872008e+05
4.639300000000000423e+00 1.142287493696461315e+05
4.686600000000000321e+00 1.035722567257096234e+05
4.733999999999999986e+00 9.248145375066295674e+04
4.781299999999999883e+00 8.472005452317344316e+04
4.828700000000000436e+00 8.159884924379464064e+04
4.876000000000000334e+00 8.449266222350287717e+04
4.923300000000000232e+00 9.294302886537005543e+04
4.970699999999999896e+00 1.022316932143830491e+05
5.017999999999999794e+00 1.084036121369626781e+05
5.065400000000000347e+00 1.155438133408516878e+05
5.112700000000000244e+00 1.311298277436853678e+05
5.160000000000000142e+00 1.568368186750860768e+05
5.207399999999999807e+00 1.882716721422934497e+05
5.254699999999999704e+00 2.127054003507675952e+05
5.302100000000000257e+00 2.188864783313503140e+05
5.349400000000000155e+00 2.092994171165747684e+05
5.396700000000000053e+00 1.992648798537941184e+05
5.444099999999999717e+00 2.008934875993370952e+05
5.491399999999999615e+00 2.162778055033907294e+05
5.538800000000000168e+00 2.428120433735383849e+05
5.586100000000000065e+00 2.686390041067962884e+05
5.633399999999999963e+00 2.762518016917028581e+05
5.680799999999999628e+00 2.653611831910170731e+05
5.728100000000000414e+00 2.515152339128142921e+05
5.775500000000000078e+00 2.482688629643160675e+05
5.822799999999999976e+00 2.584289930163200770e+05
5.870099999999999874e+00 2.811713444104021764e+05
5.917500000000000426e+00 3.127394349712110707e+05
5.964800000000000324e+00 3.377021442124778405e+05
6.012199999999999989e+00 3.459945364168407395e+05
6.059499999999999886e+00 3.423561976848940831e+05
6.106799999999999784e+00 3.386218474824602017e+05
6.154200000000000337e+00 3.375848230706233298e+05
6.201500000000000234e+00 3.466604620611691498e+05
6.248899999999999899e+00 3.679117182749505155e+05
6.296199999999999797e+00 3.924726763467117562e+05
6.343499999999999694e+00 4.103873943607252440e+05
6.390900000000000247e+00 4.229763013945891871e+05
6.438200000000000145e+00 4.361187960833619582e+05
6.485599999999999810e+00 4.577384967407364747e+05
6.532899999999999707e+00 4.939067707265728386e+05
6.580199999999999605e+00 5.403927997337119887e+05
6.627600000000000158e+00 5.800746600851377007e+05
6.674900000000000055e+00 6.041726032389641041e+05
6.722199999999999953e+00 6.161017828431557864e+05
6.769599999999999618e+00 6.116334016161409672e+05
6.816900000000000404e+00 5.900302849714909680e+05
6.864300000000000068e+00 5.600862450534832897e+05
6.911599999999999966e+00 5.362016579274260439e+05
6.958899999999999864e+00 5.252040026721731992e+05
7.006300000000000416e+00 5.216742268183986889e+05
7.053600000000000314e+00 5.178467571561113000e+05
7.100999999999999979e+00 5.159653522373141022e+05
7.148299999999999876e+00 5.243978672421682859e+05
7.195599999999999774e+00 5.461010467820366612e+05
7.243000000000000327e+00 5.758338801890657051e+05
7.290300000000000225e+00 6.010531076877288288e+05
7.337699999999999889e+00 6.083836342114042491e+05
7.384999999999999787e+00 6.062419911904881010e+05
7.432299999999999685e+00 6.050973209870820865e+05
7.479700000000000237e+00 6.049570599431712180e+05
7.527000000000000135e+00 6.065747165294198785e+05
7.574399999999999800e+00 6.116808080991200404e+05
7.621699999999999697e+00 6.201841451237938600e+05
7.668999999999999595e+00 6.315227092761212261e+05
7.716400000000000148e+00 6.483327699473237153e+05
7.763700000000000045e+00 6.712268258026059484e+05
7.811099999999999710e+00 6.981716195692165056e+05
7.858399999999999608e+00 7.200715050608700840e+05
7.905700000000000394e+00 7.370429249180470360e+05
7.953100000000000058e+00 7.539975366912434110e+05
8.000400000000000844e+00 7.768884540907597402e+05
8.047800000000000509e+00 8.072414265840592561e+05
8.095100000000000406e+00 8.439737193004605360e+05
8.142400000000000304e+00 8.788919628783193184e+05
8.189799999999999969e+00 8.945256878093946725e+05
8.237099999999999866e+00 8.821900418321656762e+05
8.284499999999999531e+00 8.483269515070253983e+05
8.331799999999999429e+00 8.133467258087871596e+05
8.379099999999999326e+00 7.872422837677042698e+05
8.426500000000000767e+00 7.699011067937669577e+05
8.473800000000000665e+00 7.643391762458969606e+05
8.521200000000000330e+00 7.662495611780376639e+05
8.568500000000000227e+00 7.583190382960516727e+05
8.615800000000000125e+00 7.468202987445123727e+05
8.663199999999999790e+00 7.476895390558799263e+05
8.710499999999999687e+00 7.529631793964874232e+05
8.757899999999999352e+00 7.493049070143435383e+05
8.805199999999999250e+00 7.370147634884030558e+05
8.852499999999999147e+00 7.221760450060144067e+05
8.899900000000000588e+00 7.068723865252776304e+05
8.947200000000000486e+00 6.965813885779010598e+05
8.994600000000000151e+00 6.953148614333318546e+05
9.041900000000000048e+00 7.043968053181861760e+05
9.089199999999999946e+00 7.235529328033548081e+05
9.136599999999999611e+00 7.495231119604125852e+05
9.183899999999999508e+00 7.752077955842437223e+05
9.231299999999999173e+00 7.932595427779161837e+05
9.278600000000000847e+00 8.009067402288306039e+05
9.325900000000000745e+00 8.058367221693783067e+05
9.373300000000000409e+00 8.080406901633561356e+05
9.420600000000000307e+00 8.056884231829800410e+05
9.467999999999999972e+00 8.015677915101028048e+05
9.515299999999999869e+00 7.952998033827935578e+05
9.562599999999999767e+00 7.857909593086767709e+05
9.609999999999999432e+00 7.711622394491583109e+05
9.657299999999999329e+00 7.532294944610622479e+05
9.704700000000000770e+00 7.362631021786538186e+05
9.752000000000000668e+00 7.291988744977086317e+05
9.799300000000000566e+00 7.332880125848582247e+05
9.846700000000000230e+00 7.360232608480715426e+05
9.894000000000000128e+00 7.351145477660745382e+05
9.941399999999999793e+00 7.363417192122240085e+05
9.988699999999999690e+00 7.386754864612906240e+05
1.003599999999999959e+01 7.391301501735586207e+05
1.008339999999999925e+01 7.418147314458888723e+05
1.013069999999999915e+01 7.485334072610881412e+05
1.017810000000000059e+01 7.505106321510936832e+05
1.022540000000000049e+01 7.472351787115243496e+05
1.027270000000000039e+01 7.420612241039853543e+05
1.032010000000000005e+01 7.396734611722658155e+05
1.036739999999999995e+01 7.463887626194214681e+05
1.041479999999999961e+01 7.622725552434949204e+05
1.046209999999999951e+01 7.832240255503025837e+05
1.050939999999999941e+01 8.066221503282235935e+05
1.055680000000000085e+01 8.255681345215796027e+05
1.060410000000000075e+01 8.383795638506528921e+05
1.065150000000000041e+01 8.487798852851121919e+05
1.069880000000000031e+01 8.526967051041898085e+05
1.074610000000000021e+01 8.498968166012545116e+05
1.079349999999999987e+01 8.419630003186941613e+05
1.084079999999999977e+01 8.313500022886833176e+05
1.088819999999999943e+01 8.231473999578595394e+05
1.093549999999999933e+01 8.225875518888040679e+05
1.098279999999999923e+01 8.325776264359963825e+05
1.103020000000000067e+01 8.456458558993926272e+05
1.107750000000000057e+01 8.501496975004291162e+05
1.112490000000000023e+01 8.393007551401033998e+05
1.117220000000000013e+01 8.243329784167991020e+05
1.121950000000000003e+01 8.151997348045936087e+05
1.126689999999999969e+01 8.205296465110861463e+05
1.131419999999999959e+01 8.426596409776995424e+05
1.136149999999999949e+01 8.735076869835285470e+05
1.140889999999999915e+01 9.026991272631570464e+05
1.145620000000000083e+01 9.281918610103095416e+05
1.150360000000000049e+01 9.514901837525110459e+05
1.155090000000000039e+01 9.646672733975627925e+05
1.159820000000000029e+01 9.604808540132791968e+05
1.164559999999999995e+01 9.447720714029713999e+05
1.169289999999999985e+01 9.261612641001940938e+05
1.174029999999999951e+01 9.077117272403489333e+05
1.178759999999999941e+01 8.959194934452691814e+05
1.183489999999999931e+01 9.018026304767637048e+05
1.188230000000000075e+01 9.224571668968478916e+05
1.192960000000000065e+01 9.344373884923841106e+05
1.197700000000000031e+01 9.270734732743951026e+05
1.202430000000000021e+01 9.091973888244252885e+05
1.207160000000000011e+01 8.864323968881665496e+05
1.211899999999999977e+01 8.656435658410147298e+05
1.216629999999999967e+01 8.519862838168782182e+05
1.221369999999999933e+01 8.446841064971629530e+05
1.226099999999999923e+01 8.402617131930439500e+05
1.230829999999999913e+01 8.370517781388073927e+05
1.235570000000000057e+01 8.280941871639307356e+05
1.240300000000000047e+01 8.164161003278905991e+05
1.245040000000000013e+01 8.074207032617494697e+05
1.249770000000000003e+01 7.995048055697595701e+05
1.254499999999999993e+01 7.912076738999531372e+05
1.259239999999999959e+01 7.890499098854060285e+05
1.263969999999999949e+01 7.999062574424879858e+05
1.268709999999999916e+01 8.227621527546738507e+05
1.273440000000000083e+01 8.504568266781833954e+05
1.278170000000000073e+01 8.718641604997325921e+05
1.282910000000000039e+01 8.851747793783817906e+05
1.287640000000000029e+01 9.018213486295895418e+05
1.292379999999999995e+01 9.248434454153806437e+05
1.297109999999999985e+01 9.512508925034400309e+05
1.301839999999999975e+01 9.686946481728682993e+05
1.306579999999999941e+01 9.673036384625321953e+05
1.311309999999999931e+01 9.510073835814608028e+05
1.316050000000000075e+01 9.284065350816840073e+05
1.320780000000000065e+01 9.044756866810048232e+05
1.325510000000000055e+01 8.791084131608721800e+05
1.330250000000000021e+01 8.529080979119593976e+05
1.334980000000000011e+01 8.316438635064512491e+05
1.339719999999999978e+01 8.231424913758103503e+05
1.344449999999999967e+01 8.244086651347266743e+05
1.349179999999999957e+01 8.248826685114079155e+05
1.353919999999999924e+01 8.209629228144420777e+05
1.358649999999999913e+01 8.150444705553611275e+05
1.363390000000000057e+01 8.103732913026373135e+05
1.368120000000000047e+01 8.112013954744796501e+05
1.372850000000000037e+01 8.129212388158154208e+05
1.377590000000000003e+01 8.084472922526730690e+05
1.382319999999999993e+01 7.987630866897738306e+05
1.387059999999999960e+01 7.864684342766012996e+05
1.391789999999999949e+01 7.803690061538347509e+05
1.396519999999999939e+01 7.813325371109787375e+05
1.401260000000000083e+01 7.681850657833307050e+05
1.405990000000000073e+01 7.415750888931383379e+05
1.410730000000000040e+01 7.175248782763169147e+05
1.415460000000000029e+01 7.031168918855340453e+05
1.420190000000000019e+01 6.944503182452721521e+05
1.424929999999999986e+01 6.880596366316196509e+05
1.429659999999999975e+01 6.866311480346352328e+05
1.434399999999999942e+01 6.908281058955249609e+05
1.439129999999999932e+01 6.964088371673116926e+05
1.443859999999999921e+01 7.046984281319677830e+05
1.448600000000000065e+01 7.169995673917694949e+05
1.453330000000000055e+01 7.273603206658500712e+05
1.458070000000000022e+01 7.355093888088151580e+05
1.462800000000000011e+01 7.558311523266723379e+05
1.467530000000000001e+01 7.865916305841041030e+05
1.472269999999999968e+01 8.122966985487353522e+05
1.476999999999999957e+01 8.256899467328437604e+05
1.481739999999999924e+01 8.375964768799958983e+05
1.486469999999999914e+01 8.610808201468843035e+05
1.491200000000000081e+01 8.969791961397825507e+05
1.495940000000000047e+01 9.270711015833441634e+05
1.500670000000000037e+01 9.352259459238436539e+05
1.505410000000000004e+01 9.319217415385995992e+05
1.510139999999999993e+01 9.261776056368454592e+05
1.514869999999999983e+01 9.220727239710598951e+05
1.519609999999999950e+01 9.236491579683715245e+05
1.524339999999999939e+01 9.300517148407197092e+05
1.529080000000000084e+01 9.371579640222958988e+05
1.533810000000000073e+01 9.518000512098240433e+05
1.538540000000000063e+01 9.690038997291701380e+05
1.543280000000000030e+01 9.843046140528148971e+05
1.548010000000000019e+01 9.959196321627919096e+05
1.552749999999999986e+01 1.006682273957357509e+06
1.557479999999999976e+01 1.023401132676784182e+06
1.562209999999999965e+01 1.045209227391194901e+06
1.566949999999999932e+01 1.063043248236311832e+06
1.571679999999999922e+01 1.064408958183646668e+06
1.576409999999999911e+01 1.048803288737631403e+06
1.581150000000000055e+01 1.038822376965004834e+06
1.585880000000000045e+01 1.052810366328904871e+06
1.590620000000000012e+01 1.075152280081060715e+06
1.595350000000000001e+01 1.077252305343470769e+06
1.600080000000000169e+01 1.058638382490000455e+06
1.604820000000000135e+01 1.041257070895099896e+06
1.609550000000000125e+01 1.021870194680929766e+06
1.614290000000000092e+01 9.985227168122166768e+05
1.619020000000000081e+01 9.920394701041874941e+05
1.623750000000000071e+01 9.938865720506472280e+05
1.628490000000000038e+01 9.731212660978090717e+05
1.633220000000000027e+01 9.423619929165241774e+05
1.637959999999999994e+01 9.265227232402056688e+05
1.642689999999999984e+01 9.241987686176382704e+05
1.647419999999999973e+01 9.230406801759450464e+05
1.652159999999999940e+01 9.347631796199645614e+05
1.656889999999999930e+01 9.661955969302243320e+05
1.661629999999999896e+01 9.989569062156915898e+05
1.666359999999999886e+01 1.018263736149960430e+06
1.671089999999999876e+01 1.030072666121365037e+06
1.675829999999999842e+01 1.048860051133926027e+06
1.680559999999999832e+01 1.071196700365639757e+06
1.685300000000000153e+01 1.085741659244840965e+06
1.690030000000000143e+01 1.083926283775564050e+06
1.694760000000000133e+01 1.064207036650713533e+06
1.699500000000000099e+01 1.043613238373224391e+06
1.704230000000000089e+01 1.021407712858568411e+06
1.708970000000000056e+01 9.731468471202340443e+05
1.713700000000000045e+01 9.178005400128795300e+05
1.718430000000000035e+01 8.900082069864913356e+05
1.723170000000000002e+01 9.021365270169010619e+05
1.727899999999999991e+01 9.408982680431873305e+05
1.732639999999999958e+01 9.935595913626183756e+05
1.737369999999999948e+01 1.073710039531168528e+06
1.742099999999999937e+01 1.191072019433983834e+06
1.746839999999999904e+01 1.319482502307923045e+06
1.751569999999999894e+01 1.428674248195368098e+06
1.756309999999999860e+01 1.514933308706390904e+06
1.761039999999999850e+01 1.564024738135161577e+06
1.765769999999999840e+01 1.569211137218385935e+06
1.770510000000000161e+01 1.556050273347831098e+06
1.775240000000000151e+01 1.549410836899874266e+06
1.779980000000000118e+01 1.563974165385463042e+06
1.784710000000000107e+01 1.599798283453691052e+06
1.789440000000000097e+01 1.643937931786510628e+06
1.794180000000000064e+01 1.711779126680132700e+06
1.798910000000000053e+01 1.792172579240729101e+06
1.803650000000000020e+01 1.857580704145960510e+06
1.808380000000000010e+01 1.895298588761444436e+06
1.813109999999999999e+01 1.893590490402066847e+06
1.817849999999999966e+01 1.884712352484716102e+06
1.822579999999999956e+01 1.890259508363284869e+06
1.827319999999999922e+01 1.865282663147303741e+06
1.832049999999999912e+01 1.799023422536948230e+06
1.836779999999999902e+01 1.731888458135291236e+06
1.841519999999999868e+01 1.669438092133709462e+06
1.846249999999999858e+01 1.592838849760320503e+06
1.850989999999999824e+01 1.514375627135527553e+06
1.855720000000000169e+01 1.455905850437222514e+06
1.860450000000000159e+01 1.424589104274861515e+06
1.865190000000000126e+01 1.430513012584489770e+06
1.869920000000000115e+01 1.460790914090248523e+06
1.874660000000000082e+01 1.481930469828438014e+06
1.879390000000000072e+01 1.480624039940248244e+06
1.884120000000000061e+01 1.460302621906297281e+06
