# energy(eV) alpha
0.000000000000000000e+00 0.000000000000000000e+00
4.529999999999999999e-02 4.054056445194941238e-01
9.049999999999999711e-02 1.799741355247850949e+00
1.358000000000000040e-01 4.050675607422869362e+00
1.811000000000000110e-01 7.021814863508045512e+00
2.263000000000000012e-01 1.124788147403464933e+01
2.716000000000000081e-01 1.592704795803275353e+01
3.169000000000000150e-01 2.172962210267669647e+01
3.620999999999999774e-01 2.878155074087854715e+01
4.073999999999999844e-01 3.601733423262439260e+01
4.526999999999999913e-01 4.540746833384961434e+01
4.979999999999999982e-01 5.438728571418535296e+01
5.432000000000000162e-01 6.523610047801024336e+01
5.885000000000000231e-01 7.649282802024096384e+01
6.338000000000000300e-01 8.926706096948676361e+01
6.790000000000000480e-01 1.023285610563211776e+02
7.243000000000000549e-01 1.170072038318470078e+02
7.695999999999999508e-01 1.334198101972846757e+02
8.147999999999999687e-01 1.492574111731811115e+02
8.600999999999999757e-01 1.668416088451781150e+02
9.053999999999999826e-01 1.862836260293173325e+02
9.506000000000000005e-01 2.067536462966063766e+02
9.959000000000000075e-01 2.273042896133387671e+02
1.041199999999999903e+00 2.498348585577983840e+02
1.086400000000000032e+00 2.755219040912263040e+02
1.131699999999999928e+00 3.002085519097615247e+02
1.177000000000000046e+00 3.270840165019681649e+02
1.222199999999999953e+00 3.562400756725337487e+02
1.267500000000000071e+00 3.853705052283606847e+02
1.312799999999999967e+00 4.156023220235754252e+02
1.358000000000000096e+00 4.495604624411937493e+02
1.403299999999999992e+00 4.848082986574474944e+02
1.448600000000000110e+00 5.213068274599479537e+02
1.493900000000000006e+00 5.590515911470104129e+02
1.539099999999999913e+00 6.010057405697015156e+02
1.584400000000000031e+00 6.428433455944536945e+02
1.629699999999999926e+00 6.859809444647469263e+02
1.674900000000000055e+00 7.369049989893218253e+02
1.720199999999999951e+00 7.844571703530804143e+02
1.765500000000000069e+00 8.368041136315824815e+02
1.810699999999999976e+00 8.923678467912939141e+02
1.856000000000000094e+00 9.495551118608891557e+02
1.901299999999999990e+00 1.013823231158779208e+03
1.946499999999999897e+00 1.076061016223007300e+03
1.991800000000000015e+00 1.143816466099801346e+03
2.037100000000000133e+00 1.217239353028146752e+03
2.082300000000000040e+00 1.294503362478966437e+03
2.127600000000000158e+00 1.375816397215055986e+03
2.172899999999999832e+00 1.461223126657173907e+03
2.218100000000000183e+00 1.550716188505362197e+03
2.263399999999999856e+00 1.648880704916677814e+03
2.308699999999999974e+00 1.753722561862883595e+03
2.354000000000000092e+00 1.863221736930032876e+03
2.399199999999999999e+00 1.986477229970905000e+03
2.444500000000000117e+00 2.114895175556297545e+03
2.489799999999999791e+00 2.253132742089019303e+03
2.535000000000000142e+00 2.403820224823800345e+03
2.580299999999999816e+00 2.567426118709001912e+03
2.625599999999999934e+00 2.746704295862795334e+03
2.670799999999999841e+00 2.946984342744980495e+03
2.716099999999999959e+00 3.163999203357438546e+03
2.761400000000000077e+00 3.413474034471870254e+03
2.806599999999999984e+00 3.693535622192121082e+03
2.851900000000000102e+00 4.021107620090613636e+03
2.897200000000000220e+00 4.405333181255979071e+03
2.942400000000000126e+00 4.874509791500005122e+03
2.987699999999999800e+00 5.475081048203649516e+03
3.032999999999999918e+00 6.282724925052874823e+03
3.078199999999999825e+00 7.335362174804910865e+03
3.123499999999999943e+00 8.427915617072138048e+03
3.168800000000000061e+00 9.241659820050015696e+03
3.213999999999999968e+00 1.007340821807754583e+04
3.259300000000000086e+00 1.141168692889557315e+04
3.304600000000000204e+00 1.335209622426473834e+04
3.349899999999999878e+00 1.601324063496519193e+04
3.395099999999999785e+00 2.019088610178973613e+04
3.440399999999999903e+00 2.667116048968978430e+04
3.485700000000000021e+00 3.429687176654906943e+04
3.530899999999999928e+00 4.087923905672883120e+04
3.576200000000000045e+00 4.603442865616183553e+04
3.621500000000000163e+00 4.847533453261543036e+04
3.666700000000000070e+00 5.126087408838665579e+04
3.712000000000000188e+00 5.358922602769834339e+04
3.757299999999999862e+00 5.251866354672575108e+04
3.802500000000000213e+00 5.081826405461027753e+04
3.847799999999999887e+00 5.141725912077487737e+04
3.893100000000000005e+00 5.465755262293165288e+04
3.938299999999999912e+00 5.920074489911786804e+04
3.983600000000000030e+00 6.550525027548413345e+04
4.028900000000000148e+00 7.483034313038240361e+04
4.074099999999999611e+00 8.499882926048818626e+04
4.119399999999999729e+00 9.517137948894064175e+04
4.164699999999999847e+00 1.084759010091940581e+05
4.209900000000000198e+00 1.215351809455362672e+05
4.255200000000000315e+00 1.331612904010736383e+05
4.300500000000000433e+00 1.468743921636554587e+05
4.345799999999999663e+00 1.626807613945309131e+05
4.391000000000000014e+00 1.758321414195067191e+05
4.436300000000000132e+00 1.772498004101769766e+05
4.481600000000000250e+00 1.701883059449147549e+05
4.526799999999999713e+00 1.649196314141020412e+05
4.572099999999999831e+00 1.637133566421606229e+05
4.617399999999999949e+00 1.596341780040632875e+05
4.662600000000000300e+00 1.523292630127720477e+05
4.707900000000000418e+00 1.438530207281707844e+05
4.753199999999999648e+00 1.366210185453371960e+05
4.798399999999999999e+00 1.335880508777431678e+05
4.843700000000000117e+00 1.348222725270775554e+05
4.889000000000000234e+00 1.377990671863935422e+05
4.934199999999999697e+00 1.420456750234316278e+05
4.979499999999999815e+00 1.486105319628160796e+05
5.024799999999999933e+00 1.558093518068306730e+05
5.070000000000000284e+00 1.636759501035259163e+05
5.115300000000000402e+00 1.759106020394445513e+05
5.160599999999999632e+00 1.929302993220767530e+05
5.205899999999999750e+00 2.112604892972973466e+05
5.251100000000000101e+00 2.267244732829687709e+05
5.296400000000000219e+00 2.377073579901702760e+05
5.341700000000000337e+00 2.426106367482346250e+05
5.386899999999999800e+00 2.440957814528782619e+05
5.432199999999999918e+00 2.473295049460884184e+05
5.477500000000000036e+00 2.544052424313898955e+05
5.522700000000000387e+00 2.647757619810675969e+05
5.567999999999999616e+00 2.758080485563047696e+05
5.613299999999999734e+00 2.844368633306018892e+05
5.658500000000000085e+00 2.915423976002112613e+05
5.703800000000000203e+00 2.975116265858727857e+05
5.749100000000000321e+00 3.014262371708925930e+05
5.794299999999999784e+00 3.029365279008446960e+05
5.839599999999999902e+00 3.020690082112070522e+05
5.884900000000000020e+00 3.015959168404359370e+05
5.930100000000000371e+00 3.040219284570165328e+05
5.975399999999999601e+00 3.073341644281679764e+05
6.020699999999999719e+00 3.114561708119636169e+05
6.065900000000000070e+00 3.169408373029458453e+05
6.111200000000000188e+00 3.219790715155223734e+05
6.156500000000000306e+00 3.268101512747825473e+05
6.201800000000000423e+00 3.331139605783274164e+05
6.246999999999999886e+00 3.433442822304713191e+05
6.292300000000000004e+00 3.596793764384101960e+05
6.337600000000000122e+00 3.831881910167164751e+05
6.382799999999999585e+00 4.138240902742695180e+05
6.428099999999999703e+00 4.461482405871794326e+05
6.473399999999999821e+00 4.721282820878571947e+05
6.518600000000000172e+00 4.903566701277504326e+05
6.563900000000000290e+00 5.007428787418500287e+05
6.609200000000000408e+00 5.032492671457989491e+05
6.654399999999999871e+00 5.022486054434994585e+05
6.699699999999999989e+00 5.032304908421853906e+05
6.745000000000000107e+00 5.098275446277635638e+05
6.790199999999999569e+00 5.226388802804966690e+05
6.835499999999999687e+00 5.356076167812064523e+05
6.880799999999999805e+00 5.449136239444400417e+05
6.926000000000000156e+00 5.488480750926032197e+05
6.971300000000000274e+00 5.489747033044267446e+05
7.016600000000000392e+00 5.522769514430159470e+05
7.061899999999999622e+00 5.650773705706414767e+05
7.107099999999999973e+00 5.855537005734189879e+05
7.152400000000000091e+00 6.053237722798057366e+05
7.197700000000000209e+00 6.156738566424821038e+05
7.242899999999999672e+00 6.194037661800243659e+05
7.288199999999999790e+00 6.265405436670287745e+05
7.333499999999999908e+00 6.408427080221317010e+05
7.378700000000000259e+00 6.567932042448599823e+05
7.424000000000000377e+00 6.658197363171079196e+05
7.469299999999999606e+00 6.632861012084081303e+05
7.514499999999999957e+00 6.535020498781298520e+05
7.559800000000000075e+00 6.414439493186996551e+05
7.605100000000000193e+00 6.294637480785150547e+05
7.650299999999999656e+00 6.189662178251248552e+05
7.695599999999999774e+00 6.106059709049804369e+05
7.740899999999999892e+00 6.059686731189972488e+05
7.786100000000000243e+00 6.063358245452863630e+05
7.831400000000000361e+00 6.124582367684247438e+05
7.876699999999999591e+00 6.280717832639473490e+05
7.921899999999999942e+00 6.520177755541346269e+05
7.967200000000000060e+00 6.794396367105694953e+05
8.012499999999999289e+00 7.053537950379520189e+05
8.057800000000000296e+00 7.250424939373489469e+05
8.102999999999999758e+00 7.299956918243546970e+05
8.148300000000000765e+00 7.090788877977980301e+05
8.193599999999999994e+00 6.725124563631998608e+05
8.238799999999999457e+00 6.386760918143385788e+05
8.284100000000000463e+00 6.125590746151863132e+05
8.329399999999999693e+00 5.919973019982965197e+05
8.374599999999999156e+00 5.749489486554334871e+05
8.419900000000000162e+00 5.596814184224189958e+05
8.465199999999999392e+00 5.476101597938039340e+05
8.510400000000000631e+00 5.425126819732816657e+05
8.555699999999999861e+00 5.436266084925400792e+05
8.601000000000000867e+00 5.518806556977619184e+05
8.646200000000000330e+00 5.682371828189911321e+05
8.691499999999999559e+00 5.902704420086219907e+05
8.736800000000000566e+00 6.144227559439977631e+05
8.782000000000000028e+00 6.416023139217458665e+05
8.827299999999999258e+00 6.729423559953973163e+05
8.872600000000000264e+00 7.068021539411402773e+05
8.917899999999999494e+00 7.390847329441617476e+05
8.963100000000000733e+00 7.684491425208708970e+05
9.008399999999999963e+00 7.919186078757555224e+05
9.053699999999999193e+00 8.077758530323263258e+05
9.098900000000000432e+00 8.197230283928362187e+05
9.144199999999999662e+00 8.267589652232151711e+05
9.189500000000000668e+00 8.211102646652128315e+05
9.234700000000000131e+00 8.040275747974569676e+05
9.279999999999999361e+00 7.841605970422119135e+05
9.325300000000000367e+00 7.625250199906224152e+05
9.370499999999999829e+00 7.378882207736575510e+05
9.415800000000000836e+00 7.145288585920976475e+05
9.461100000000000065e+00 6.960773937792322831e+05
9.506299999999999528e+00 6.811944315063226968e+05
9.551600000000000534e+00 6.669815239928816445e+05
9.596899999999999764e+00 6.519489430496961577e+05
9.642099999999999227e+00 6.348748158909445629e+05
9.687400000000000233e+00 6.167560653056083247e+05
9.732699999999999463e+00 6.000409455989736598e+05
9.777900000000000702e+00 5.857191387997791171e+05
9.823199999999999932e+00 5.755835153419208946e+05
9.868499999999999162e+00 5.703181896808630554e+05
9.913800000000000168e+00 5.707234123624685453e+05
9.958999999999999631e+00 5.773548278497819556e+05
1.000430000000000064e+01 5.867336148141018348e+05
1.004959999999999987e+01 5.968747986574072856e+05
1.009479999999999933e+01 6.072421316378074698e+05
1.014010000000000034e+01 6.192719453440200305e+05
1.018539999999999957e+01 6.323976496318653226e+05
1.023060000000000080e+01 6.419794580653187586e+05
1.027590000000000003e+01 6.443008201529155485e+05
1.032119999999999926e+01 6.401050432156054303e+05
1.036640000000000050e+01 6.330039964425798971e+05
1.041169999999999973e+01 6.280669268678501248e+05
1.045700000000000074e+01 6.287819871165816439e+05
1.050220000000000020e+01 6.322475288135694573e+05
1.054749999999999943e+01 6.352283362695021788e+05
1.059280000000000044e+01 6.395057266396641498e+05
1.063799999999999990e+01 6.452073754656488309e+05
1.068329999999999913e+01 6.499639583918910939e+05
1.072860000000000014e+01 6.516717828733137576e+05
1.077379999999999960e+01 6.533600689207396936e+05
1.081910000000000061e+01 6.559293305075345561e+05
1.086439999999999984e+01 6.603872127908205148e+05
1.090970000000000084e+01 6.685859152063332731e+05
1.095490000000000030e+01 6.798574148751015309e+05
1.100019999999999953e+01 6.947727117228612769e+05
1.104550000000000054e+01 7.094404778735940345e+05
1.109070000000000000e+01 7.183442348687476479e+05
1.113599999999999923e+01 7.244602811546189478e+05
1.118130000000000024e+01 7.312526826587857213e+05
1.122649999999999970e+01 7.338953343372112140e+05
1.127180000000000071e+01 7.314698065784022911e+05
1.131709999999999994e+01 7.275469698243293678e+05
1.136229999999999940e+01 7.221752782600205392e+05
1.140760000000000041e+01 7.164067813222890254e+05
1.145289999999999964e+01 7.117515123172106687e+05
1.149810000000000088e+01 7.102394010163417552e+05
1.154340000000000011e+01 7.137692206521872431e+05
1.158869999999999933e+01 7.201902144490763312e+05
1.163390000000000057e+01 7.242826428776559187e+05
1.167919999999999980e+01 7.234652540624921676e+05
1.172450000000000081e+01 7.210224166412923951e+05
1.176980000000000004e+01 7.153308094064252218e+05
1.181499999999999950e+01 7.034496421371948672e+05
1.186030000000000051e+01 6.868868012501288904e+05
1.190559999999999974e+01 6.696487196374216583e+05
1.195079999999999920e+01 6.564970324497530237e+05
1.199610000000000021e+01 6.504445310992050217e+05
1.204139999999999944e+01 6.536196560057878960e+05
1.208660000000000068e+01 6.673433663971939823e+05
1.213189999999999991e+01 6.862117453338592313e+05
1.217719999999999914e+01 7.023746518653205130e+05
1.222240000000000038e+01 7.139519399144392228e+05
1.226769999999999960e+01 7.214894664580982644e+05
1.231300000000000061e+01 7.259837246449278900e+05
1.235820000000000007e+01 7.281582199692635331e+05
1.240349999999999930e+01 7.261046735027735122e+05
1.244880000000000031e+01 7.196665217358326772e+05
1.249399999999999977e+01 7.122763936499668052e+05
1.253930000000000078e+01 7.085316665274878033e+05
1.258460000000000001e+01 7.073898824898124440e+05
1.262979999999999947e+01 7.042141732565022539e+05
1.267510000000000048e+01 7.020563655520250322e+05
1.272039999999999971e+01 7.034715892208162695e+05
1.276570000000000071e+01 7.042674279034590581e+05
1.281090000000000018e+01 7.038030075585503364e+05
1.285619999999999941e+01 7.018190447641832288e+05
1.290150000000000041e+01 6.940611150191540364e+05
1.294669999999999987e+01 6.820858172653460642e+05
1.299200000000000088e+01 6.705038161217148881e+05
1.303730000000000011e+01 6.611892327388206031e+05
1.308249999999999957e+01 6.541471360306942370e+05
1.312780000000000058e+01 6.477765697156436509e+05
1.317309999999999981e+01 6.405818095235688379e+05
1.321829999999999927e+01 6.324080375113979680e+05
1.326360000000000028e+01 6.238531964403977618e+05
1.330889999999999951e+01 6.184519827332946006e+05
1.335410000000000075e+01 6.179661569448224036e+05
1.339939999999999998e+01 6.209546206196665298e+05
1.344469999999999921e+01 6.238464322015781654e+05
1.348990000000000045e+01 6.233080663234965177e+05
1.353519999999999968e+01 6.232137746871883282e+05
1.358050000000000068e+01 6.298689901782182278e+05
1.362579999999999991e+01 6.419808879151218571e+05
1.367099999999999937e+01 6.541393260282981209e+05
1.371630000000000038e+01 6.644425276389989303e+05
1.376159999999999961e+01 6.717269286410348723e+05
1.380680000000000085e+01 6.736167547300760634e+05
1.385210000000000008e+01 6.727053081003762782e+05
1.389739999999999931e+01 6.721755843731062487e+05
1.394260000000000055e+01 6.758793135937596671e+05
1.398789999999999978e+01 6.836543039271496236e+05
1.403320000000000078e+01 6.909004503902711440e+05
1.407840000000000025e+01 6.962610851758087520e+05
1.412369999999999948e+01 6.996528199395985575e+05
1.416900000000000048e+01 7.019041819861556869e+05
1.421419999999999995e+01 7.065519836800682824e+05
1.425949999999999918e+01 7.124884426192217506e+05
1.430480000000000018e+01 7.152225535113258520e+05
1.434999999999999964e+01 7.174189616870572791e+05
1.439530000000000065e+01 7.202418109613275155e+05
1.444059999999999988e+01 7.229628711268617772e+05
1.448579999999999934e+01 7.270335471763733076e+05
1.453110000000000035e+01 7.350415665956712328e+05
1.457639999999999958e+01 7.444981403008525958e+05
1.462170000000000059e+01 7.496006843401347287e+05
1.466690000000000005e+01 7.515806311808495084e+05
1.471219999999999928e+01 7.549899674315038137e+05
1.475750000000000028e+01 7.623903690552281914e+05
1.480269999999999975e+01 7.750727230647917604e+05
1.484800000000000075e+01 7.917548834859317867e+05
1.489329999999999998e+01 8.124906005281576654e+05
1.493849999999999945e+01 8.317634158505566884e+05
1.498380000000000045e+01 8.410692952179289423e+05
1.502909999999999968e+01 8.368663055514374282e+05
1.507429999999999914e+01 8.232698140976291616e+05
1.511960000000000015e+01 8.138434795126151294e+05
1.516489999999999938e+01 8.185444660569519037e+05
1.521010000000000062e+01 8.334842495737051358e+05
1.525539999999999985e+01 8.474626722589215497e+05
1.530070000000000086e+01 8.473679353691787692e+05
1.534590000000000032e+01 8.314555624465765432e+05
1.539119999999999955e+01 8.096014467614669120e+05
1.543650000000000055e+01 7.879533692178714555e+05
1.548179999999999978e+01 7.705192471581212012e+05
1.552699999999999925e+01 7.614282687719579553e+05
1.557230000000000025e+01 7.581340079508186318e+05
1.561759999999999948e+01 7.563402552006101469e+05
1.566280000000000072e+01 7.545488156899180030e+05
1.570809999999999995e+01 7.508210250181914307e+05
1.575339999999999918e+01 7.484592842968531186e+05
1.579860000000000042e+01 7.570206494373161113e+05
1.584389999999999965e+01 7.799241902598789893e+05
1.588920000000000066e+01 8.082426679060793249e+05
1.593440000000000012e+01 8.434848231622116873e+05
1.597969999999999935e+01 8.884506673550606938e+05
1.602499999999999858e+01 9.379989008931514109e+05
1.607019999999999982e+01 9.924764161063552601e+05
1.611550000000000082e+01 1.050879642034237506e+06
1.616079999999999828e+01 1.107137926645098720e+06
1.620599999999999952e+01 1.167130010499041295e+06
1.625130000000000052e+01 1.244408528426370351e+06
1.629660000000000153e+01 1.336248009564401349e+06
1.634179999999999922e+01 1.417752582911652513e+06
1.638710000000000022e+01 1.474846662282816134e+06
1.643240000000000123e+01 1.517083899039130192e+06
1.647769999999999868e+01 1.549547143245740328e+06
1.652289999999999992e+01 1.569682408947115066e+06
1.656820000000000093e+01 1.572462396987664979e+06
1.661349999999999838e+01 1.562501628028853796e+06
1.665869999999999962e+01 1.552812201246031793e+06
1.670400000000000063e+01 1.545901422310483176e+06
1.674930000000000163e+01 1.531777891711384756e+06
1.679449999999999932e+01 1.503848217170628486e+06
1.683980000000000032e+01 1.469866756629677489e+06
1.688510000000000133e+01 1.440180050401496002e+06
1.693029999999999902e+01 1.411679972125909058e+06
1.697560000000000002e+01 1.380098312501184409e+06
1.702090000000000103e+01 1.345661243906086776e+06
1.706609999999999872e+01 1.304842126923677744e+06
1.711139999999999972e+01 1.259807171396096004e+06
1.715670000000000073e+01 1.222606929335595807e+06
1.720189999999999841e+01 1.204543607841800200e+06
1.724719999999999942e+01 1.201658345499520889e+06
1.729250000000000043e+01 1.213954363994013751e+06
1.733770000000000167e+01 1.242718971926773200e+06
1.738299999999999912e+01 1.280008271206084173e+06
1.742830000000000013e+01 1.316126330244508106e+06
1.747360000000000113e+01 1.355649023339430336e+06
1.751879999999999882e+01 1.415071068330595968e+06
1.756409999999999982e+01 1.484409568362226244e+06
1.760940000000000083e+01 1.551992413406238658e+06
1.765459999999999852e+01 1.617599995502751786e+06
1.769989999999999952e+01 1.665939156286909711e+06
1.774520000000000053e+01 1.695530662859070348e+06
1.779040000000000177e+01 1.726676082741853548e+06
1.783569999999999922e+01 1.758617178448411170e+06
1.788100000000000023e+01 1.778788733205823926e+06
1.792620000000000147e+01 1.790559206973570632e+06
1.797149999999999892e+01 1.814054815797463758e+06
1.801679999999999993e+01 1.854758454900887562e+06
