# energy(eV) alpha
0.000000000000000000e+00 0.000000000000000000e+00
3.670000000000000345e-02 3.311002220598841528e-01
7.340000000000000691e-02 1.103641495227577929e+00
1.102000000000000063e-01 2.651051982008223007e+00
1.469000000000000028e-01 4.417106539574959356e+00
1.836000000000000132e-01 7.176315546595157358e+00
2.202999999999999958e-01 1.059697126615688667e+01
2.570999999999999952e-01 1.391140235253218194e+01
2.938000000000000056e-01 1.854434017734157791e+01
3.305000000000000160e-01 2.383756532989468724e+01
3.672000000000000264e-01 2.868708949643675155e+01
4.040000000000000258e-01 3.519763585295424946e+01
4.406999999999999806e-01 4.235826221195520702e+01
4.773999999999999910e-01 4.874329798993044705e+01
5.141000000000000014e-01 5.710856542433243987e+01
5.507999999999999563e-01 6.613009671081789520e+01
5.876000000000000112e-01 7.581955431214895214e+01
6.242999999999999661e-01 8.615100540516607452e+01
6.610000000000000320e-01 9.515190296790491686e+01
6.976999999999999869e-01 1.066778582205669750e+02
7.345000000000000417e-01 1.188711819423700007e+02
7.711999999999999966e-01 1.316970283804846247e+02
8.078999999999999515e-01 1.451714090148041407e+02
8.446000000000000174e-01 1.592912830348120394e+02
8.813999999999999613e-01 1.740746599323181272e+02
9.181000000000000272e-01 1.894844044414178086e+02
9.547999999999999821e-01 2.055335279903450498e+02
9.915000000000000480e-01 2.241963670082247972e+02
1.028200000000000003e+00 2.426174728438158184e+02
1.064999999999999947e+00 2.607126877625940438e+02
1.101699999999999902e+00 2.794135530810891055e+02
1.138400000000000079e+00 3.021407419674906691e+02
1.175100000000000033e+00 3.222100053182792863e+02
1.211899999999999977e+00 3.465406009199726327e+02
1.248599999999999932e+00 3.679676976121197072e+02
1.285300000000000109e+00 3.938318314058918759e+02
1.322000000000000064e+00 4.192229519158429412e+02
1.358800000000000008e+00 4.467437336439062960e+02
1.395499999999999963e+00 4.722967856086064558e+02
1.432199999999999918e+00 5.013554098121853713e+02
1.468900000000000095e+00 5.341356731098389901e+02
1.505600000000000049e+00 5.648922724419213637e+02
1.542399999999999993e+00 5.964953500335867602e+02
1.579099999999999948e+00 6.304141396280459730e+02
1.615799999999999903e+00 6.667966976490630486e+02
1.652500000000000080e+00 7.057313620527320381e+02
1.689300000000000024e+00 7.407210729062720702e+02
1.725999999999999979e+00 7.815255531324002050e+02
1.762699999999999934e+00 8.233200239038549171e+02
1.799400000000000110e+00 8.660850845320386497e+02
1.836200000000000054e+00 9.152474349966603313e+02
1.872900000000000009e+00 9.600408306081168348e+02
1.909599999999999964e+00 1.011375833383885038e+03
1.946299999999999919e+00 1.063842733991974683e+03
1.983000000000000096e+00 1.117455861745693483e+03
2.019800000000000040e+00 1.176173703729539056e+03
2.056500000000000217e+00 1.232077071410622693e+03
2.093199999999999950e+00 1.295171487952487269e+03
2.129900000000000126e+00 1.359558688405001249e+03
2.166700000000000070e+00 1.429468192020596007e+03
2.203399999999999803e+00 1.496425220041416878e+03
2.240099999999999980e+00 1.575431866941381713e+03
2.276800000000000157e+00 1.651609904490401277e+03
2.313600000000000101e+00 1.735922527417841138e+03
2.350299999999999834e+00 1.821718769121723653e+03
2.387000000000000011e+00 1.913624191544266978e+03
2.423700000000000188e+00 2.009503583824224052e+03
2.460399999999999920e+00 2.111738873411019085e+03
2.497199999999999864e+00 2.222985465026165002e+03
2.533900000000000041e+00 2.338449496537978575e+03
2.570600000000000218e+00 2.460746067050522470e+03
2.607299999999999951e+00 2.587534468478012059e+03
2.644099999999999895e+00 2.726446544979992268e+03
2.680800000000000072e+00 2.877576241844578362e+03
2.717499999999999805e+00 3.031066257354585105e+03
2.754199999999999982e+00 3.199845520708125605e+03
2.790999999999999925e+00 3.381701855385236286e+03
2.827700000000000102e+00 3.579314479410815238e+03
2.864399999999999835e+00 3.793119608637216061e+03
2.901100000000000012e+00 4.020696319411615150e+03
2.937800000000000189e+00 4.273082221950454368e+03
2.974600000000000133e+00 4.551006101819292780e+03
3.011299999999999866e+00 4.848980031492929811e+03
3.048000000000000043e+00 5.181302585857210943e+03
3.084700000000000220e+00 5.557157922059809607e+03
3.121500000000000163e+00 5.968707782008173126e+03
3.158199999999999896e+00 6.430358274124576383e+03
3.194900000000000073e+00 6.954431428102038808e+03
3.231599999999999806e+00 7.559110659270044380e+03
3.268400000000000194e+00 8.248212435750627264e+03
3.305099999999999927e+00 9.054509396191548149e+03
3.341800000000000104e+00 1.000840716857501684e+04
3.378499999999999837e+00 1.115256319418609382e+04
3.415200000000000014e+00 1.255316058192454329e+04
3.451999999999999957e+00 1.430109353407874551e+04
3.488700000000000134e+00 1.653694675830337655e+04
3.525399999999999867e+00 1.948940793210731499e+04
3.562100000000000044e+00 2.352618972276806016e+04
3.598899999999999988e+00 2.920524231753903223e+04
3.635600000000000165e+00 3.728010373904781591e+04
3.672299999999999898e+00 4.807515321311250591e+04
3.709000000000000075e+00 5.993760874666346353e+04
3.745800000000000018e+00 6.984186430304267560e+04
3.782500000000000195e+00 7.767218050193013914e+04
3.819199999999999928e+00 8.532519215172527765e+04
3.855900000000000105e+00 9.387083525977586396e+04
3.892599999999999838e+00 1.057440441447331104e+05
3.929399999999999782e+00 1.220445389268291183e+05
3.966099999999999959e+00 1.431961898623263987e+05
4.002799999999999692e+00 1.680993354806952993e+05
4.039500000000000313e+00 1.872109018934822525e+05
4.076299999999999812e+00 1.924867682698297431e+05
4.113000000000000433e+00 1.924052299691884837e+05
4.149700000000000166e+00 1.927486969976087566e+05
4.186399999999999899e+00 1.863805618388232542e+05
4.223099999999999632e+00 1.710074456555931247e+05
4.259900000000000020e+00 1.506231420355689188e+05
4.296599999999999753e+00 1.309733508228443243e+05
4.333300000000000374e+00 1.169923743847011356e+05
4.370000000000000107e+00 1.091012386997886206e+05
4.406799999999999606e+00 1.056410522846547392e+05
4.443500000000000227e+00 1.029955346786790033e+05
4.480199999999999960e+00 9.712218337940156925e+04
4.516899999999999693e+00 8.844745466480230971e+04
4.553700000000000081e+00 8.015173729389962682e+04
4.590399999999999814e+00 7.369822045496807550e+04
4.627100000000000435e+00 6.904886319788856781e+04
4.663800000000000168e+00 6.584530914497445337e+04
4.700499999999999901e+00 6.387806773860045359e+04
4.737300000000000288e+00 6.321701397842748702e+04
4.774000000000000021e+00 6.324313623937682132e+04
4.810699999999999754e+00 6.363592545320801582e+04
4.847400000000000375e+00 6.544935781990285614e+04
4.884199999999999875e+00 6.922554803024102875e+04
4.920899999999999608e+00 7.463278509654612571e+04
4.957600000000000229e+00 8.193434477124773548e+04
4.994299999999999962e+00 9.173747745436160767e+04
5.031100000000000350e+00 1.040771288364609354e+05
5.067800000000000082e+00 1.177209748571881792e+05
5.104499999999999815e+00 1.319219543241791544e+05
5.141200000000000436e+00 1.468800310401246825e+05
5.177900000000000169e+00 1.624363561278640118e+05
5.214699999999999669e+00 1.768608089808467194e+05
5.251400000000000290e+00 1.876454931109983299e+05
5.288100000000000023e+00 1.957150154651458142e+05
5.324799999999999756e+00 2.040149547287542082e+05
5.361600000000000144e+00 2.149951814713837230e+05
5.398299999999999876e+00 2.293333040276666579e+05
5.434999999999999609e+00 2.449410880401186296e+05
5.471700000000000230e+00 2.592471714984279824e+05
5.508499999999999730e+00 2.703375046125266817e+05
5.545200000000000351e+00 2.776615330168789369e+05
5.581900000000000084e+00 2.819594442259827629e+05
5.618599999999999817e+00 2.845389134294820833e+05
5.655300000000000438e+00 2.873171755570003297e+05
5.692099999999999937e+00 2.957209739794969209e+05
5.728799999999999670e+00 3.133359886866231100e+05
5.765500000000000291e+00 3.357173496086947853e+05
5.802200000000000024e+00 3.560699188238806091e+05
5.839000000000000412e+00 3.727149740722971037e+05
5.875700000000000145e+00 3.840951691519712331e+05
5.912399999999999878e+00 3.887265852704564459e+05
5.949099999999999611e+00 3.895316693158952985e+05
5.985899999999999999e+00 3.851596421185053769e+05
6.022599999999999731e+00 3.733748833367967163e+05
6.059300000000000352e+00 3.603768976281234063e+05
6.096000000000000085e+00 3.527736209877577494e+05
6.132699999999999818e+00 3.518666435461704386e+05
6.169500000000000206e+00 3.562446034649702488e+05
6.206199999999999939e+00 3.643122144953511306e+05
6.242899999999999672e+00 3.770357326294903178e+05
6.279600000000000293e+00 3.964578926974703209e+05
6.316399999999999793e+00 4.225783501166558708e+05
6.353100000000000414e+00 4.530931478814681177e+05
6.389800000000000146e+00 4.843344181862188270e+05
6.426499999999999879e+00 5.102606803542373818e+05
6.463300000000000267e+00 5.246438607390926918e+05
6.500000000000000000e+00 5.241431104769407539e+05
6.536699999999999733e+00 5.107695754373751697e+05
6.573400000000000354e+00 4.931411756222566473e+05
6.610100000000000087e+00 4.801501266854392597e+05
6.646899999999999586e+00 4.759986423157043173e+05
6.683600000000000207e+00 4.798332497577848262e+05
6.720299999999999940e+00 4.878206063385528396e+05
6.756999999999999673e+00 4.993887610748409061e+05
6.793800000000000061e+00 5.173988603294999339e+05
6.830499999999999794e+00 5.416319320324322907e+05
6.867200000000000415e+00 5.694354591392048169e+05
6.903900000000000148e+00 5.974293923450370785e+05
6.940699999999999648e+00 6.208832850178424269e+05
6.977400000000000269e+00 6.341378757347972132e+05
7.014100000000000001e+00 6.393923747403331799e+05
7.050799999999999734e+00 6.433462475048976485e+05
7.087500000000000355e+00 6.490523645487101749e+05
7.124299999999999855e+00 6.594212810500380583e+05
7.160999999999999588e+00 6.746981124121154426e+05
7.197700000000000209e+00 6.894372488553945441e+05
7.234399999999999942e+00 6.965248961541111348e+05
7.271200000000000330e+00 6.945577509919336298e+05
7.307900000000000063e+00 6.873654607460672269e+05
7.344599999999999795e+00 6.785098471214275341e+05
7.381300000000000416e+00 6.656807241369130788e+05
7.418099999999999916e+00 6.447928872074225219e+05
7.454799999999999649e+00 6.191014923624903895e+05
7.491500000000000270e+00 5.979917630641565192e+05
7.528200000000000003e+00 5.874100771634528646e+05
7.564899999999999736e+00 5.876297368116199505e+05
7.601700000000000124e+00 5.946073850952225039e+05
7.638399999999999856e+00 6.023380047956341878e+05
7.675099999999999589e+00 6.081426513398421230e+05
7.711800000000000210e+00 6.121727295908983797e+05
7.748599999999999710e+00 6.137201226364130853e+05
7.785300000000000331e+00 6.121586007796945050e+05
7.822000000000000064e+00 6.078215844050437445e+05
7.858699999999999797e+00 6.043826075755454367e+05
7.895500000000000185e+00 6.067373703633794794e+05
7.932199999999999918e+00 6.160900506390401861e+05
7.968899999999999650e+00 6.261847318975158269e+05
8.005599999999999383e+00 6.292791593566683587e+05
8.042299999999999116e+00 6.276151842266976601e+05
8.079100000000000392e+00 6.216637831721808761e+05
8.115800000000000125e+00 6.068683582351005170e+05
8.152499999999999858e+00 5.880068165365720633e+05
8.189199999999999591e+00 5.737532602730308427e+05
8.226000000000000867e+00 5.658062894581806613e+05
8.262700000000000600e+00 5.593029250043194043e+05
8.299400000000000333e+00 5.493668450444756309e+05
8.336100000000000065e+00 5.354584831191418925e+05
8.372899999999999565e+00 5.228819542000287329e+05
8.409599999999999298e+00 5.151430975727843470e+05
8.446300000000000807e+00 5.117943955839868868e+05
8.483000000000000540e+00 5.148972042645551264e+05
8.519700000000000273e+00 5.267032492258073762e+05
8.556499999999999773e+00 5.460546689197416417e+05
8.593199999999999505e+00 5.693917096421618480e+05
8.629899999999999238e+00 5.932218591423495673e+05
8.666600000000000747e+00 6.180733373201941140e+05
8.703400000000000247e+00 6.460655323995460058e+05
8.740099999999999980e+00 6.768563294466728112e+05
8.776799999999999713e+00 7.078615379075499950e+05
8.813499999999999446e+00 7.349827723736012122e+05
8.850300000000000722e+00 7.564096028858044883e+05
8.887000000000000455e+00 7.743485118681626627e+05
8.923700000000000188e+00 7.926809803856338840e+05
8.960399999999999920e+00 8.126196109297316289e+05
8.997099999999999653e+00 8.296318952066965867e+05
9.033899999999999153e+00 8.343581957405916182e+05
9.070600000000000662e+00 8.223484966066626366e+05
9.107300000000000395e+00 7.996308380985637195e+05
9.144000000000000128e+00 7.759219746918648016e+05
9.180799999999999628e+00 7.564499440215411596e+05
9.217499999999999361e+00 7.415889929043187294e+05
9.254200000000000870e+00 7.288717305539147928e+05
9.290900000000000603e+00 7.148754878127033589e+05
9.327700000000000102e+00 6.997182882616060087e+05
9.364399999999999835e+00 6.845447133539306233e+05
9.401099999999999568e+00 6.700929364667125046e+05
9.437799999999999301e+00 6.575676974989547161e+05
9.474500000000000810e+00 6.445254742789311567e+05
9.511300000000000310e+00 6.257941377399460180e+05
9.548000000000000043e+00 6.013369827224125620e+05
9.584699999999999775e+00 5.756119625257488806e+05
9.621399999999999508e+00 5.543584178297806066e+05
9.658200000000000784e+00 5.422164759828278329e+05
9.694900000000000517e+00 5.392537226335845189e+05
9.731600000000000250e+00 5.423317844647483435e+05
9.768299999999999983e+00 5.478733400242448552e+05
9.805099999999999483e+00 5.527972597188720247e+05
9.841799999999999216e+00 5.566974681392929051e+05
9.878500000000000725e+00 5.611613016460336512e+05
9.915200000000000458e+00 5.681210334554350702e+05
9.951900000000000190e+00 5.779018002983757760e+05
9.988699999999999690e+00 5.898209324448327534e+05
1.002539999999999942e+01 6.009176642391735222e+05
1.006209999999999916e+01 6.067069186584112467e+05
1.009880000000000067e+01 6.041303094018353149e+05
1.013560000000000016e+01 5.949437353342480492e+05
1.017229999999999990e+01 5.834774986094967462e+05
1.020899999999999963e+01 5.755019352884630207e+05
1.024569999999999936e+01 5.761869011991821462e+05
1.028250000000000064e+01 5.862841429683096940e+05
1.031920000000000037e+01 6.015930196756154764e+05
1.035590000000000011e+01 6.147771279375740560e+05
1.039259999999999984e+01 6.208166222250852734e+05
1.042929999999999957e+01 6.204427407018286176e+05
1.046610000000000085e+01 6.159085793213157449e+05
1.050280000000000058e+01 6.116289096720056841e+05
1.053950000000000031e+01 6.115998571896040812e+05
1.057620000000000005e+01 6.159394429983352311e+05
1.061299999999999955e+01 6.226468097002985887e+05
1.064969999999999928e+01 6.286726495546496008e+05
1.068640000000000079e+01 6.336121037024146644e+05
1.072310000000000052e+01 6.385994143567881547e+05
1.075990000000000002e+01 6.452515873784776777e+05
1.079659999999999975e+01 6.558701424900045386e+05
1.083329999999999949e+01 6.706017869922198588e+05
1.086999999999999922e+01 6.845442258106936933e+05
1.090670000000000073e+01 6.920247536721361103e+05
1.094350000000000023e+01 6.899320872446885332e+05
1.098019999999999996e+01 6.763990526029849425e+05
1.101689999999999969e+01 6.568085784366248408e+05
1.105359999999999943e+01 6.419303951506955782e+05
1.109040000000000070e+01 6.356101419721401762e+05
1.112710000000000043e+01 6.330248850001922110e+05
1.116380000000000017e+01 6.296847178682404337e+05
1.120049999999999990e+01 6.259916008505013306e+05
1.123729999999999940e+01 6.271340211640656926e+05
1.127399999999999913e+01 6.350650857670508558e+05
1.131070000000000064e+01 6.448460048380611697e+05
1.134740000000000038e+01 6.514391144311306998e+05
1.138410000000000011e+01 6.540499293264199514e+05
1.142089999999999961e+01 6.546088868229396176e+05
1.145759999999999934e+01 6.552454312655744143e+05
1.149430000000000085e+01 6.581099306015669135e+05
1.153100000000000058e+01 6.612838635086283321e+05
1.156780000000000008e+01 6.591353614304923685e+05
1.160449999999999982e+01 6.501518287647354882e+05
1.164119999999999955e+01 6.368493481611936586e+05
1.167789999999999928e+01 6.236172517354461597e+05
1.171470000000000056e+01 6.146325358032209333e+05
1.175140000000000029e+01 6.084638735129920533e+05
1.178810000000000002e+01 6.037815196860373253e+05
1.182479999999999976e+01 6.042544951180849457e+05
1.186149999999999949e+01 6.101228054891359061e+05
1.189830000000000076e+01 6.167966699606875191e+05
1.193500000000000050e+01 6.244591259210369317e+05
1.197170000000000023e+01 6.367491492668751162e+05
1.200839999999999996e+01 6.513505923030361300e+05
1.204519999999999946e+01 6.649691785633785184e+05
1.208189999999999920e+01 6.784456288419478806e+05
1.211860000000000070e+01 6.943820585058762226e+05
1.215530000000000044e+01 7.131066125251515768e+05
1.219200000000000017e+01 7.316574862607981777e+05
1.222879999999999967e+01 7.464550352374765789e+05
1.226549999999999940e+01 7.534075521002768073e+05
1.230219999999999914e+01 7.523611863351932261e+05
1.233890000000000065e+01 7.446834268465365749e+05
1.237570000000000014e+01 7.305159051832831465e+05
1.241239999999999988e+01 7.124078673006413737e+05
1.244909999999999961e+01 6.914021514501711354e+05
1.248579999999999934e+01 6.713914037488193717e+05
1.252260000000000062e+01 6.579572669125429820e+05
1.255930000000000035e+01 6.509281216476609698e+05
1.259600000000000009e+01 6.469561636997765163e+05
1.263269999999999982e+01 6.453499537327190628e+05
1.266939999999999955e+01 6.462107419379587518e+05
1.270620000000000083e+01 6.474537753558004042e+05
1.274290000000000056e+01 6.471044546088805655e+05
1.277960000000000029e+01 6.449691762590330327e+05
1.281630000000000003e+01 6.407141039195524063e+05
1.285309999999999953e+01 6.333375935774981044e+05
1.288979999999999926e+01 6.241654585216321284e+05
1.292650000000000077e+01 6.136954984039965784e+05
1.296320000000000050e+01 5.996593133423527470e+05
1.300000000000000000e+01 5.822048864596277708e+05
1.303669999999999973e+01 5.639012842241490725e+05
1.307339999999999947e+01 5.459867309309586417e+05
1.311009999999999920e+01 5.293442811940147076e+05
1.314680000000000071e+01 5.140283970357829239e+05
1.318360000000000021e+01 5.017434422531913151e+05
1.322029999999999994e+01 4.972167610590063850e+05
1.325699999999999967e+01 5.028402584186930908e+05
1.329369999999999941e+01 5.162934463284246740e+05
1.333050000000000068e+01 5.329249047707737191e+05
1.336720000000000041e+01 5.493025787936778506e+05
1.340390000000000015e+01 5.667807105362954317e+05
1.344059999999999988e+01 5.857431686542154057e+05
1.347739999999999938e+01 6.014978976529509528e+05
1.351409999999999911e+01 6.125921564937586663e+05
1.355080000000000062e+01 6.214266902655615704e+05
1.358750000000000036e+01 6.289766717436404433e+05
1.362420000000000009e+01 6.358293731259469641e+05
1.366099999999999959e+01 6.439022893740884028e+05
1.369769999999999932e+01 6.523368696669547353e+05
1.373440000000000083e+01 6.587228047790545970e+05
1.377110000000000056e+01 6.624991944720634492e+05
1.380790000000000006e+01 6.657132009577210993e+05
1.384459999999999980e+01 6.715858124352325685e+05
1.388129999999999953e+01 6.818936446606835816e+05
1.391799999999999926e+01 6.958554173438708531e+05
1.395480000000000054e+01 7.132137724673494231e+05
1.399150000000000027e+01 7.331554239965098677e+05
1.402820000000000000e+01 7.491820006765229627e+05
1.406489999999999974e+01 7.555745687843706692e+05
1.410159999999999947e+01 7.573578944129660958e+05
1.413840000000000074e+01 7.609903148716279538e+05
1.417510000000000048e+01 7.660718130217317957e+05
1.421180000000000021e+01 7.697745860977942357e+05
1.424849999999999994e+01 7.707458349450156093e+05
1.428529999999999944e+01 7.682062801404352067e+05
1.432199999999999918e+01 7.631044286087608198e+05
1.435870000000000068e+01 7.578008869461702416e+05
1.439540000000000042e+01 7.541004092753303703e+05
1.443219999999999992e+01 7.531408051393916830e+05
1.446889999999999965e+01 7.529924248431253945e+05
1.450559999999999938e+01 7.500448807165549370e+05
1.454229999999999912e+01 7.430993768880537245e+05
1.457900000000000063e+01 7.357148753072795225e+05
1.461580000000000013e+01 7.307246044500763528e+05
