# energy(eV) alpha
0.000000000000000000e+00 0.000000000000000000e+00
1.018000000000000016e-01 1.012358100252177451e+01
2.036000000000000032e-01 4.046678679732477946e+01
3.054000000000000048e-01 9.165609346445963013e+01
4.072999999999999954e-01 1.652441578972018306e+02
5.090999999999999970e-01 2.623586793491738831e+02
6.108999999999999986e-01 3.850810514573891510e+02
7.127000000000000002e-01 5.376235839262528771e+02
8.145000000000000018e-01 7.230863925745743472e+02
9.163000000000000034e-01 9.481875434201743928e+02
1.018199999999999994e+00 1.218213647357365517e+03
1.120000000000000107e+00 1.544251239471473127e+03
1.221799999999999997e+00 1.939850986635217168e+03
1.323600000000000110e+00 2.423210514135360881e+03
1.425400000000000000e+00 3.023176673276082056e+03
1.527199999999999891e+00 3.782260767079180823e+03
1.629000000000000004e+00 4.773447242183243361e+03
1.730900000000000105e+00 6.126711817854573383e+03
1.832699999999999996e+00 8.110349901960083116e+03
1.934500000000000108e+00 1.140233954966001147e+04
2.036300000000000221e+00 1.817327729932715010e+04
2.138100000000000112e+00 3.191546278491492558e+04
2.239900000000000002e+00 4.681784764259075746e+04
2.341699999999999893e+00 6.354677198654512904e+04
2.443599999999999994e+00 7.951098118690931005e+04
2.545399999999999885e+00 1.033036084363818954e+05
2.647200000000000220e+00 1.329515307724766317e+05
2.749000000000000110e+00 1.773148245983753586e+05
2.850800000000000001e+00 1.996883618430406787e+05
2.952599999999999891e+00 2.319098859881280223e+05
3.054499999999999993e+00 3.040683849249506020e+05
3.156299999999999883e+00 3.135551776180334273e+05
3.258100000000000218e+00 3.187815769427203923e+05
3.359900000000000109e+00 3.187600173047013814e+05
3.461699999999999999e+00 3.324354647545924527e+05
3.563499999999999890e+00 3.780872507994014886e+05
3.665299999999999780e+00 4.057806570364123909e+05
3.767199999999999882e+00 4.605994021356096491e+05
3.869000000000000217e+00 4.803759264403966372e+05
3.970800000000000107e+00 5.013061979450822691e+05
4.072600000000000442e+00 5.076712486170754419e+05
4.174400000000000333e+00 4.805316802000236348e+05
4.276200000000000223e+00 4.655508757889982662e+05
4.378099999999999881e+00 4.834993254741682322e+05
4.479899999999999771e+00 5.056835577071981388e+05
4.581699999999999662e+00 5.170634409866343485e+05
4.683500000000000441e+00 5.034739827923729899e+05
4.785300000000000331e+00 4.839030485710810171e+05
4.887100000000000222e+00 4.429430482439793996e+05
4.988900000000000112e+00 4.278198473767335527e+05
5.090799999999999770e+00 4.140216555473920889e+05
5.192599999999999660e+00 4.127175082926941104e+05
5.294400000000000439e+00 4.475445390957069467e+05
5.396200000000000330e+00 4.765311926114921225e+05
5.498000000000000220e+00 5.440617510029925033e+05
5.599800000000000111e+00 5.948519948302367702e+05
5.701699999999999768e+00 5.907206374262447935e+05
5.803499999999999659e+00 5.680458116584195523e+05
5.905300000000000438e+00 5.049026907956070499e+05
6.007100000000000328e+00 4.183577822857054998e+05
6.108900000000000219e+00 3.583069992801343324e+05
6.210700000000000109e+00 3.129384056373978383e+05
6.312500000000000000e+00 2.950757051053714240e+05
6.414399999999999658e+00 2.914775949971593800e+05
6.516200000000000436e+00 2.961368789245919907e+05
6.618000000000000327e+00 2.920355178061851184e+05
6.719800000000000217e+00 2.965983677787269116e+05
6.821600000000000108e+00 3.055094727096913266e+05
6.923399999999999999e+00 3.049375116199229960e+05
7.025199999999999889e+00 3.214589370722233434e+05
7.127100000000000435e+00 3.505258942067904281e+05
7.228900000000000325e+00 3.689412885559521965e+05
7.330700000000000216e+00 3.919871936907365452e+05
7.432500000000000107e+00 4.265326516342516406e+05
7.534299999999999997e+00 4.871616355717960396e+05
7.636099999999999888e+00 5.405095743427162524e+05
7.738000000000000433e+00 5.771149660932257539e+05
7.839800000000000324e+00 6.226449591224325122e+05
7.941600000000000215e+00 6.630220359838190489e+05
8.043400000000000105e+00 7.070246364359823056e+05
8.145200000000000884e+00 7.323891739099380793e+05
8.246999999999999886e+00 7.632988778599920915e+05
8.348800000000000665e+00 7.959196356378748314e+05
8.450699999999999434e+00 8.283683354977067793e+05
8.552500000000000213e+00 8.422432194963294314e+05
8.654299999999999216e+00 8.760769451883109286e+05
8.756099999999999994e+00 9.434165473504649708e+05
8.857900000000000773e+00 9.874334387912313687e+05
8.959699999999999775e+00 9.485462271334722172e+05
9.061600000000000321e+00 8.990565994809436379e+05
9.163399999999999324e+00 8.918432794244994875e+05
9.265200000000000102e+00 9.158837162871952169e+05
9.367000000000000881e+00 9.313317228758053388e+05
9.468799999999999883e+00 9.564476500815132167e+05
9.570600000000000662e+00 9.745511434755071532e+05
9.672399999999999665e+00 9.738150235978792189e+05
9.774300000000000210e+00 9.640165404470236972e+05
9.876099999999999213e+00 9.786598407279321691e+05
9.977899999999999991e+00 1.004919411576294107e+06
1.007970000000000077e+01 1.065204893648093101e+06
1.018149999999999977e+01 1.108677722882013768e+06
1.028330000000000055e+01 1.095967414703762624e+06
1.038519999999999932e+01 1.083140575276680524e+06
1.048700000000000010e+01 1.106092691520997789e+06
1.058880000000000088e+01 1.138692787410193123e+06
1.069059999999999988e+01 1.173506709519615397e+06
1.079240000000000066e+01 1.189928738501867512e+06
1.089419999999999966e+01 1.205811162747454830e+06
1.099600000000000044e+01 1.183135415789711056e+06
1.109789999999999921e+01 1.127958406200033147e+06
1.119969999999999999e+01 1.105150010962773114e+06
1.130150000000000077e+01 1.073786633745438885e+06
1.140329999999999977e+01 1.044860127163857338e+06
1.150510000000000055e+01 1.019020802564168349e+06
1.160689999999999955e+01 1.006501223928315681e+06
1.170870000000000033e+01 9.892207468825549586e+05
1.181060000000000088e+01 9.937489469944961602e+05
1.191239999999999988e+01 9.964274073005327955e+05
1.201420000000000066e+01 1.016118076654574135e+06
1.211599999999999966e+01 1.006960158558675204e+06
1.221780000000000044e+01 9.709116022450051969e+05
1.231959999999999944e+01 9.747583788382934872e+05
1.242149999999999999e+01 1.003304743498022319e+06
1.252330000000000076e+01 1.022320279363836045e+06
1.262509999999999977e+01 1.019541225233603618e+06
1.272690000000000055e+01 9.922106339199371869e+05
1.282869999999999955e+01 9.713399493304137141e+05
1.293050000000000033e+01 9.584385832658691797e+05
1.303229999999999933e+01 9.466635730348523939e+05
1.313419999999999987e+01 9.362154354021118488e+05
1.323600000000000065e+01 9.404217256459282944e+05
1.333779999999999966e+01 9.418839556789390044e+05
1.343960000000000043e+01 9.457300495136776008e+05
1.354139999999999944e+01 9.445658441366398474e+05
1.364320000000000022e+01 9.390981621874956181e+05
1.374510000000000076e+01 9.328994217083532130e+05
1.384689999999999976e+01 9.120835306250819704e+05
1.394870000000000054e+01 8.930528437097505666e+05
1.405049999999999955e+01 8.771118156512746355e+05
1.415230000000000032e+01 8.546401762687031878e+05
1.425409999999999933e+01 8.295820690571566811e+05
1.435590000000000011e+01 8.244406436763607198e+05
1.445780000000000065e+01 8.055695471258602338e+05
1.455959999999999965e+01 7.871919696769983275e+05
1.466140000000000043e+01 7.876181262883810559e+05
1.476319999999999943e+01 7.872077223009985173e+05
1.486500000000000021e+01 8.329531860464086058e+05
1.496679999999999922e+01 8.958862598615001189e+05
1.506859999999999999e+01 1.042881442989198258e+06
1.517050000000000054e+01 1.153086611659449991e+06
1.527229999999999954e+01 1.118439542916942388e+06
1.537410000000000032e+01 1.047988107075826381e+06
1.547589999999999932e+01 1.026601298332392471e+06
1.557770000000000010e+01 1.048660588632132625e+06
1.567950000000000088e+01 1.049817248425729107e+06
1.578139999999999965e+01 1.025637855670197285e+06
1.588320000000000043e+01 1.026994429572797148e+06
1.598499999999999943e+01 1.047017850604028790e+06
1.608680000000000021e+01 1.026142293670109008e+06
1.618860000000000099e+01 9.995296798410669435e+05
1.629040000000000177e+01 1.003881446489561466e+06
1.639219999999999899e+01 1.015464220312895370e+06
1.649409999999999954e+01 1.013320896008694079e+06
1.659590000000000032e+01 1.008772023839047994e+06
1.669770000000000110e+01 9.979071709280879004e+05
1.679949999999999832e+01 9.787611885093945311e+05
1.690129999999999910e+01 9.762257335326832253e+05
1.700309999999999988e+01 9.864170405560511863e+05
1.710500000000000043e+01 9.819462954071674030e+05
1.720680000000000121e+01 9.734768151243505999e+05
1.730859999999999843e+01 9.709734307450648630e+05
1.741039999999999921e+01 9.718127446268186904e+05
1.751219999999999999e+01 9.793113888542981585e+05
1.761400000000000077e+01 9.612757726338697830e+05
1.771580000000000155e+01 9.688208480403485009e+05
1.781769999999999854e+01 9.615180780438521178e+05
1.791949999999999932e+01 9.457396005581094651e+05
1.802130000000000010e+01 9.602897513443290954e+05
1.812310000000000088e+01 9.764778567825470818e+05
1.822490000000000165e+01 9.650160604792481754e+05
1.832669999999999888e+01 9.534437972207280109e+05
1.842859999999999943e+01 9.550593161722617224e+05
1.853040000000000020e+01 9.504784988917167066e+05
1.863220000000000098e+01 9.415763968599339714e+05
1.873400000000000176e+01 9.304000107121338369e+05
1.883579999999999899e+01 9.299510215408990625e+05
1.893759999999999977e+01 9.155876542427819222e+05
1.903940000000000055e+01 9.102605406099901302e+05
1.914130000000000109e+01 9.132839289252817398e+05
1.924309999999999832e+01 8.989726357529325178e+05
1.934489999999999910e+01 8.778087858018391998e+05
1.944669999999999987e+01 8.713695966890499694e+05
1.954850000000000065e+01 8.711014584969955031e+05
1.965030000000000143e+01 8.599825246224341681e+05
1.975209999999999866e+01 8.647574550847471692e+05
1.985399999999999920e+01 8.544294474992953474e+05
1.995579999999999998e+01 8.430240327831248287e+05
2.005760000000000076e+01 8.332779697185953846e+05
2.015940000000000154e+01 8.291201943829301745e+05
2.026119999999999877e+01 8.124016765427584760e+05
2.036299999999999955e+01 7.984522306089638732e+05
2.046490000000000009e+01 8.008568474278730573e+05
2.056670000000000087e+01 7.941332750060223043e+05
2.066850000000000165e+01 7.798192761951347347e+05
2.077029999999999887e+01 7.524648596347039565e+05
2.087209999999999965e+01 7.402228662581960671e+05
2.097390000000000043e+01 7.337106612613718025e+05
2.107570000000000121e+01 7.124229699177485891e+05
2.117760000000000176e+01 7.040904641132805264e+05
2.127939999999999898e+01 6.991116459726601606e+05
2.138119999999999976e+01 6.946356014959679451e+05
2.148300000000000054e+01 6.858679808590130415e+05
2.158480000000000132e+01 6.794209430082334438e+05
2.168659999999999854e+01 6.745802529663261957e+05
2.178849999999999909e+01 6.551112114460681332e+05
2.189029999999999987e+01 6.295190026911707828e+05
2.199210000000000065e+01 6.047963798167549539e+05
2.209390000000000143e+01 6.015473853202731116e+05
2.219569999999999865e+01 5.932923842336202506e+05
2.229749999999999943e+01 5.854308495419534156e+05
2.239930000000000021e+01 5.618192709937302861e+05
2.250120000000000076e+01 5.368053550016551744e+05
2.260300000000000153e+01 5.306472541507367278e+05
2.270479999999999876e+01 5.159604703712687478e+05
2.280659999999999954e+01 5.037784363643681281e+05
2.290840000000000032e+01 4.996684701308130170e+05
2.301020000000000110e+01 4.939643080878686160e+05
2.311210000000000164e+01 4.886015394983111182e+05
2.321389999999999887e+01 4.797445920329184737e+05
2.331569999999999965e+01 4.718920162130955141e+05
2.341750000000000043e+01 4.622995616692439071e+05
2.351930000000000121e+01 4.445953385712293093e+05
2.362109999999999843e+01 4.385784633924805094e+05
2.372289999999999921e+01 4.316375303882433218e+05
2.382479999999999976e+01 4.313978925977075123e+05
2.392660000000000053e+01 4.269393043200483662e+05
2.402840000000000131e+01 4.270242043313458562e+05
2.413019999999999854e+01 4.111614926766142016e+05
2.423199999999999932e+01 4.022618443816297804e+05
2.433380000000000010e+01 4.034932564424550510e+05
2.443560000000000088e+01 3.961455720666102716e+05
2.453750000000000142e+01 3.912594939316138043e+05
2.463929999999999865e+01 3.886587364273071871e+05
2.474109999999999943e+01 3.845851896364284912e+05
2.484290000000000020e+01 3.834371100647412241e+05
2.494470000000000098e+01 3.831843465579889598e+05
2.504650000000000176e+01 3.731611234842261765e+05
2.514839999999999876e+01 3.672873489206054946e+05
2.525019999999999953e+01 3.610499701052141027e+05
2.535200000000000031e+01 3.545851458494876861e+05
2.545380000000000109e+01 3.503361465316273388e+05
2.555559999999999832e+01 3.436833903230390279e+05
2.565739999999999910e+01 3.473427221196407336e+05
2.575919999999999987e+01 3.499715320341503830e+05
2.586110000000000042e+01 3.449030242471731617e+05
2.596290000000000120e+01 3.397064999591778615e+05
2.606469999999999843e+01 3.268876897458834574e+05
2.616649999999999920e+01 3.227690050748142530e+05
2.626829999999999998e+01 3.176819151502171881e+05
2.637010000000000076e+01 3.096765546779471915e+05
2.647200000000000131e+01 3.095818563407259644e+05
2.657379999999999853e+01 2.993847205908998731e+05
2.667559999999999931e+01 2.892555536281900713e+05
2.677740000000000009e+01 2.813757565809489461e+05
2.687920000000000087e+01 2.805477958594702650e+05
2.698100000000000165e+01 2.715867978400961147e+05
2.708279999999999887e+01 2.638889638125185156e+05
2.718469999999999942e+01 2.606156055432302819e+05
2.728650000000000020e+01 2.552352361652255349e+05
2.738830000000000098e+01 2.537940184453625116e+05
2.749010000000000176e+01 2.514649125779216411e+05
2.759189999999999898e+01 2.470473183631407155e+05
2.769369999999999976e+01 2.460646708448967547e+05
2.779550000000000054e+01 2.446306167756832438e+05
2.789740000000000109e+01 2.408446817674899357e+05
2.799919999999999831e+01 2.370100817276336893e+05
2.810099999999999909e+01 2.378189734669485479e+05
2.820279999999999987e+01 2.376399329469893419e+05
2.830460000000000065e+01 2.398179304658259498e+05
2.840640000000000143e+01 2.397217416832636809e+05
2.850829999999999842e+01 2.378044634110576590e+05
2.861009999999999920e+01 2.328003721321221674e+05
2.871189999999999998e+01 2.279793698745893489e+05
2.881370000000000076e+01 2.296181694455055986e+05
2.891550000000000153e+01 2.300394186209007457e+05
2.901729999999999876e+01 2.239829697606342379e+05
2.911909999999999954e+01 2.213957516686323506e+05
2.922100000000000009e+01 2.173849782740660303e+05
2.932280000000000086e+01 2.097868217152218567e+05
2.942460000000000164e+01 2.111190988059109368e+05
2.952639999999999887e+01 2.128195950286536536e+05
2.962819999999999965e+01 2.092196692358794680e+05
2.973000000000000043e+01 2.084792882735613384e+05
2.983190000000000097e+01 2.061748304416452302e+05
2.993370000000000175e+01 1.980571142409341410e+05
3.003549999999999898e+01 1.956438041790952266e+05
3.013729999999999976e+01 1.975682445606258407e+05
3.023910000000000053e+01 1.963677454442561429e+05
3.034090000000000131e+01 1.942743604270453216e+05
3.044269999999999854e+01 1.915848801851278986e+05
3.054459999999999908e+01 1.887237185090147250e+05
3.064639999999999986e+01 1.902313826416833326e+05
3.074820000000000064e+01 1.920298377141757228e+05
3.085000000000000142e+01 1.890199286260927911e+05
3.095179999999999865e+01 1.869092897498693492e+05
3.105359999999999943e+01 1.827023044074939098e+05
3.115549999999999997e+01 1.807802084163450054e+05
3.125730000000000075e+01 1.766597272945584555e+05
3.135910000000000153e+01 1.733816005520971958e+05
3.146089999999999876e+01 1.721370259471856989e+05
3.156269999999999953e+01 1.713368421773241425e+05
3.166450000000000031e+01 1.705887926259216911e+05
3.176630000000000109e+01 1.691924508372022829e+05
3.186820000000000164e+01 1.689826669931488577e+05
3.196999999999999886e+01 1.644050529619139270e+05
3.207180000000000319e+01 1.607401271466477192e+05
3.217360000000000042e+01 1.570425114030546683e+05
3.227539999999999765e+01 1.571986767928237387e+05
3.237720000000000198e+01 1.591974277261849493e+05
3.247899999999999920e+01 1.571784630388705991e+05
3.258089999999999975e+01 1.596350358559849265e+05
3.268269999999999698e+01 1.552571448730595293e+05
3.278450000000000131e+01 1.518560838190858776e+05
3.288629999999999853e+01 1.498549751559003198e+05
3.298810000000000286e+01 1.493907928500120470e+05
3.308990000000000009e+01 1.483327054807498062e+05
3.319180000000000064e+01 1.463827983107957116e+05
3.329359999999999786e+01 1.454350125915794633e+05
3.339540000000000219e+01 1.425167499486232409e+05
3.349719999999999942e+01 1.398091314352822665e+05
3.359899999999999665e+01 1.393899398693820985e+05
3.370080000000000098e+01 1.393919850198658241e+05
3.380259999999999820e+01 1.375571577129907673e+05
3.390449999999999875e+01 1.391099767723291880e+05
3.400630000000000308e+01 1.390925263375037175e+05
3.410810000000000031e+01 1.355122782049418602e+05
3.420989999999999753e+01 1.349707918495579215e+05
3.431170000000000186e+01 1.348923640690539614e+05
3.441349999999999909e+01 1.345777054952591716e+05
3.451539999999999964e+01 1.334480519643214939e+05
3.461719999999999686e+01 1.330120573228910798e+05
3.471900000000000119e+01 1.298328221016478637e+05
3.482079999999999842e+01 1.294948800014761218e+05
3.492260000000000275e+01 1.285195623125323473e+05
3.502439999999999998e+01 1.282747165498202521e+05
3.512619999999999720e+01 1.276242010795118840e+05
3.522809999999999775e+01 1.287004583605125081e+05
3.532990000000000208e+01 1.281998589432745648e+05
3.543169999999999931e+01 1.271024546878620895e+05
3.553349999999999653e+01 1.268109783566042170e+05
3.563530000000000086e+01 1.224876822031893389e+05
3.573709999999999809e+01 1.212536768319868861e+05
3.583899999999999864e+01 1.225099311001099559e+05
3.594080000000000297e+01 1.217612577782691078e+05
3.604260000000000019e+01 1.197080531087263807e+05
3.614439999999999742e+01 1.199739343634162069e+05
3.624620000000000175e+01 1.205272723981667514e+05
3.634799999999999898e+01 1.186330137250043481e+05
3.644980000000000331e+01 1.182073363346228143e+05
3.655169999999999675e+01 1.188132218358029932e+05
3.665350000000000108e+01 1.178355793672397122e+05
3.675529999999999831e+01 1.165418378356268950e+05
3.685710000000000264e+01 1.155293751746625203e+05
3.695889999999999986e+01 1.134223976397408696e+05
3.706069999999999709e+01 1.134152625586484937e+05
3.716250000000000142e+01 1.122943999080456560e+05
3.726440000000000197e+01 1.124272105819498393e+05
3.736619999999999919e+01 1.129066648832811334e+05
3.746800000000000352e+01 1.106542297115277761e+05
3.756980000000000075e+01 1.109142650970008690e+05
3.767159999999999798e+01 1.116078041111351777e+05
3.777340000000000231e+01 1.102504868169385882e+05
3.787530000000000285e+01 1.072511644746128586e+05
3.797710000000000008e+01 1.059172675146111724e+05
3.807889999999999731e+01 1.056854302955187886e+05
3.818070000000000164e+01 1.048249870964522561e+05
3.828249999999999886e+01 1.034218930186166690e+05
3.838430000000000319e+01 1.038234589989407104e+05
3.848610000000000042e+01 1.041129947961016442e+05
3.858800000000000097e+01 1.040741944428153365e+05
3.868979999999999819e+01 1.019085276413964602e+05
3.879160000000000252e+01 1.002679091310293443e+05
3.889339999999999975e+01 9.972725485764798941e+04
3.899519999999999698e+01 9.851215414466320362e+04
3.909700000000000131e+01 9.951553886398865143e+04
3.919890000000000185e+01 9.864279995960762608e+04
3.930069999999999908e+01 9.775852526440471411e+04
3.940250000000000341e+01 9.530756406865078316e+04
3.950430000000000064e+01 9.316736224033284816e+04
3.960609999999999786e+01 9.263706718915296369e+04
3.970790000000000219e+01 9.392640261065721279e+04
3.980969999999999942e+01 9.347804632870739442e+04
3.991159999999999997e+01 9.180662055370748567e+04
4.001339999999999719e+01 9.086340105940557260e+04
4.011520000000000152e+01 8.922531728487159126e+04
4.021699999999999875e+01 8.937898864747970947e+04
4.031880000000000308e+01 8.942032229739546892e+04
4.042060000000000031e+01 8.801363783898316615e+04
4.052239999999999753e+01 8.772891242936221533e+04
