# energy(eV) alpha
0.000000000000000000e+00 0.000000000000000000e+00
3.420000000000000123e-02 4.878395176476241213e-01
6.840000000000000246e-02 2.012253921996861816e+00
1.025999999999999968e-01 4.390086852396285266e+00
1.368000000000000049e-01 7.803946766621329800e+00
1.710000000000000131e-01 1.234459802161945419e+01
2.053000000000000103e-01 1.792876593260999485e+01
2.394999999999999907e-01 2.432614122352120845e+01
2.736999999999999988e-01 3.169541417104636594e+01
3.079000000000000070e-01 4.003558913020715693e+01
3.421000000000000152e-01 4.995442545417076019e+01
3.763000000000000234e-01 6.029275515519481843e+01
4.104999999999999760e-01 7.196265252933889656e+01
4.446999999999999842e-01 8.465840720939074515e+01
4.788999999999999924e-01 9.880239292108454663e+01
5.131000000000000005e-01 1.131159575952615199e+02
5.473000000000000087e-01 1.298465837994586138e+02
5.815000000000000169e-01 1.471974108650743744e+02
6.158000000000000140e-01 1.656486279272982927e+02
6.500000000000000222e-01 1.851441767644645324e+02
6.842000000000000304e-01 2.063136801699830585e+02
7.184000000000000385e-01 2.279712232331526138e+02
7.526000000000000467e-01 2.520203742341514044e+02
7.868000000000000549e-01 2.765488235492016997e+02
8.209999999999999520e-01 3.021893560682389648e+02
8.551999999999999602e-01 3.304456271062153405e+02
8.893999999999999684e-01 3.591392731794867359e+02
9.235999999999999766e-01 3.898025526215764671e+02
9.577999999999999847e-01 4.225203296499461203e+02
9.919999999999999929e-01 4.565008180195421801e+02
1.026299999999999990e+00 4.917835734522563484e+02
1.060499999999999998e+00 5.292035573896698679e+02
1.094700000000000006e+00 5.679202648994636320e+02
1.128900000000000015e+00 6.089228545582952847e+02
1.163100000000000023e+00 6.522883761532718836e+02
1.197300000000000031e+00 6.970394776122985832e+02
1.231500000000000039e+00 7.431761855186028924e+02
1.265700000000000047e+00 7.928942519542338232e+02
1.299900000000000055e+00 8.452228284759496546e+02
1.334100000000000064e+00 8.990681893335209907e+02
1.368300000000000072e+00 9.556112567011608689e+02
1.402600000000000069e+00 1.016222831874713961e+03
1.436800000000000077e+00 1.078413706619375716e+03
1.471000000000000085e+00 1.143512275112745783e+03
1.505200000000000093e+00 1.214187585336714847e+03
1.539400000000000102e+00 1.285355486744381324e+03
1.573600000000000110e+00 1.362342496143539393e+03
1.607799999999999896e+00 1.442606001747445589e+03
1.641999999999999904e+00 1.526194645062275185e+03
1.676199999999999912e+00 1.614623743879964195e+03
1.710399999999999920e+00 1.708011388795005359e+03
1.744599999999999929e+00 1.806491900434001536e+03
1.778799999999999937e+00 1.911711988476864917e+03
1.813099999999999934e+00 2.022440414258054489e+03
1.847299999999999942e+00 2.138564334464264903e+03
1.881499999999999950e+00 2.263522970469513893e+03
1.915699999999999958e+00 2.394302121003127013e+03
1.949899999999999967e+00 2.534315655217339099e+03
1.984099999999999975e+00 2.687153593181760698e+03
2.018299999999999983e+00 2.848089689557493330e+03
2.052500000000000213e+00 3.020716147987428485e+03
2.086699999999999999e+00 3.207070204119170739e+03
2.120899999999999785e+00 3.411035624479897251e+03
2.155100000000000016e+00 3.629452576323989433e+03
2.189299999999999802e+00 3.866273219044255256e+03
2.223599999999999799e+00 4.129429481396009578e+03
2.257800000000000029e+00 4.417336728960319306e+03
2.291999999999999815e+00 4.736330267912097952e+03
2.326200000000000045e+00 5.092816314546070316e+03
2.360399999999999832e+00 5.495225932773643763e+03
2.394600000000000062e+00 5.952358715121234127e+03
2.428799999999999848e+00 6.478899342475579942e+03
2.463000000000000078e+00 7.092091449544124771e+03
2.497199999999999864e+00 7.815394915663606298e+03
2.531400000000000095e+00 8.686968315567750324e+03
2.565599999999999881e+00 9.764025541645973135e+03
2.599800000000000111e+00 1.111499643337484304e+04
2.634100000000000108e+00 1.286582778884140498e+04
2.668299999999999894e+00 1.520998852231275669e+04
2.702500000000000124e+00 1.843886325061611205e+04
2.736699999999999910e+00 2.299632668473934245e+04
2.770900000000000141e+00 2.934453541642331038e+04
2.805099999999999927e+00 3.743567412412423437e+04
2.839300000000000157e+00 4.593973619554801553e+04
2.873499999999999943e+00 5.372371101378605090e+04
2.907700000000000173e+00 6.111055060188052448e+04
2.941899999999999959e+00 6.523654848600339756e+04
2.976100000000000190e+00 6.214625433598629024e+04
3.010400000000000187e+00 5.535366192359181150e+04
3.044599999999999973e+00 5.069200851360798697e+04
3.078800000000000203e+00 5.018607180084705760e+04
3.112999999999999989e+00 5.303715874421131593e+04
3.147200000000000220e+00 5.691082813269051258e+04
3.181400000000000006e+00 5.894575273190691951e+04
3.215599999999999792e+00 5.800099881531691790e+04
3.249800000000000022e+00 5.602125704690247949e+04
3.283999999999999808e+00 5.492140656480118196e+04
3.318200000000000038e+00 5.521322401712022111e+04
3.352399999999999824e+00 5.713983091121542384e+04
3.386600000000000055e+00 6.070953310915774637e+04
3.420900000000000052e+00 6.535867974767420674e+04
3.455099999999999838e+00 7.072419338683618116e+04
3.489300000000000068e+00 7.676815187348662585e+04
3.523499999999999854e+00 8.325221345004242903e+04
3.557700000000000085e+00 8.963521845922376087e+04
3.591899999999999871e+00 9.599541699845038238e+04
3.626100000000000101e+00 1.030466212067809538e+05
3.660299999999999887e+00 1.107209260986841546e+05
3.694500000000000117e+00 1.185697544104129338e+05
3.728699999999999903e+00 1.267284938998910220e+05
3.762900000000000134e+00 1.350608788003244845e+05
3.797099999999999920e+00 1.436146136469032790e+05
3.831399999999999917e+00 1.534803504014459904e+05
3.865600000000000147e+00 1.657304992184998118e+05
3.899799999999999933e+00 1.802718435460579931e+05
3.934000000000000163e+00 1.957956878844974271e+05
3.968199999999999950e+00 2.105222905561669904e+05
4.002399999999999736e+00 2.236865930616462720e+05
4.036599999999999966e+00 2.357311721861507394e+05
4.070800000000000196e+00 2.473502571913134889e+05
4.105000000000000426e+00 2.587858451267525670e+05
4.139199999999999768e+00 2.706335387628407916e+05
4.173399999999999999e+00 2.837222288706994732e+05
4.207699999999999996e+00 2.983321653651914676e+05
4.241900000000000226e+00 3.141976299963089405e+05
4.276099999999999568e+00 3.312022906961186090e+05
4.310299999999999798e+00 3.493196901766203227e+05
4.344500000000000028e+00 3.676172141054616659e+05
4.378700000000000259e+00 3.834753622595176566e+05
4.412899999999999601e+00 3.939733440680938656e+05
4.447099999999999831e+00 3.985157041012184927e+05
4.481300000000000061e+00 4.000499929892004002e+05
4.515500000000000291e+00 4.012604071056343382e+05
4.549699999999999633e+00 4.025287753979560221e+05
4.583899999999999864e+00 4.037286139242489589e+05
4.618199999999999861e+00 4.053213526915693656e+05
4.652400000000000091e+00 4.081359992513717152e+05
4.686600000000000321e+00 4.123127968424994033e+05
4.720799999999999663e+00 4.169946493584871059e+05
4.754999999999999893e+00 4.211957601818516268e+05
4.789200000000000124e+00 4.249418315220452496e+05
4.823400000000000354e+00 4.285254381012191880e+05
4.857599999999999696e+00 4.318800124609092600e+05
4.891799999999999926e+00 4.349567556903290679e+05
4.926000000000000156e+00 4.374621580676661688e+05
4.960200000000000387e+00 4.390922531113942387e+05
4.994399999999999729e+00 4.400693021211108426e+05
5.028699999999999726e+00 4.408857535833903821e+05
5.062899999999999956e+00 4.417878971427083598e+05
5.097100000000000186e+00 4.431600886055713636e+05
5.131300000000000416e+00 4.454757275934257777e+05
5.165499999999999758e+00 4.486110541931579355e+05
5.199699999999999989e+00 4.520802117911324021e+05
5.233900000000000219e+00 4.557061576816959423e+05
5.268099999999999561e+00 4.597279652122739935e+05
5.302299999999999791e+00 4.648626803092766786e+05
5.336500000000000021e+00 4.718777500117708114e+05
5.370700000000000252e+00 4.811423137877172558e+05
5.404899999999999594e+00 4.933540604152588057e+05
5.439199999999999591e+00 5.094524520774987759e+05
5.473399999999999821e+00 5.298973049926267704e+05
5.507600000000000051e+00 5.544316632086636964e+05
5.541800000000000281e+00 5.817865107018662384e+05
5.575999999999999623e+00 6.103947503671657760e+05
5.610199999999999854e+00 6.391038371852854034e+05
5.644400000000000084e+00 6.656646621639790246e+05
5.678600000000000314e+00 6.860750812401871663e+05
5.712799999999999656e+00 6.970881162445073714e+05
5.746999999999999886e+00 6.985944518400072120e+05
5.781200000000000117e+00 6.916533436894031474e+05
5.815500000000000114e+00 6.772487346573550021e+05
5.849700000000000344e+00 6.580416688057580031e+05
5.883899999999999686e+00 6.382255359499662882e+05
5.918099999999999916e+00 6.210321869896538556e+05
5.952300000000000146e+00 6.075197115636839299e+05
5.986500000000000377e+00 5.971380608382184291e+05
6.020699999999999719e+00 5.888297155442204094e+05
6.054899999999999949e+00 5.811680367512822850e+05
6.089100000000000179e+00 5.729155218364921166e+05
6.123300000000000409e+00 5.637574816042031161e+05
6.157499999999999751e+00 5.539640670343926176e+05
6.191699999999999982e+00 5.440385625683468534e+05
6.225999999999999979e+00 5.345794649617497344e+05
6.260200000000000209e+00 5.262621592501578853e+05
6.294400000000000439e+00 5.198477905779269640e+05
6.328599999999999781e+00 5.157746906814757385e+05
6.362800000000000011e+00 5.139969670299891150e+05
6.397000000000000242e+00 5.136954618544816040e+05
6.431199999999999584e+00 5.138659163953968673e+05
6.465399999999999814e+00 5.138043591725031147e+05
6.499600000000000044e+00 5.135145748845394119e+05
6.533800000000000274e+00 5.134973485225968179e+05
6.567999999999999616e+00 5.140354179370632628e+05
6.602199999999999847e+00 5.146248580465104897e+05
6.636499999999999844e+00 5.143841060651382431e+05
6.670700000000000074e+00 5.126872239221614436e+05
6.704900000000000304e+00 5.094499113341087941e+05
6.739099999999999646e+00 5.052283246208680794e+05
6.773299999999999876e+00 5.010219276112659718e+05
6.807500000000000107e+00 4.975616375062466832e+05
6.841700000000000337e+00 4.949280354275974096e+05
6.875899999999999679e+00 4.929820197409184766e+05
6.910099999999999909e+00 4.915397944846870960e+05
6.944300000000000139e+00 4.904673909301537205e+05
6.978500000000000369e+00 4.895033249841906363e+05
7.012800000000000367e+00 4.884966614613643615e+05
7.046999999999999709e+00 4.877281195366632892e+05
7.081199999999999939e+00 4.873095681956032058e+05
7.115400000000000169e+00 4.870426966789697763e+05
7.149600000000000399e+00 4.866478544501294382e+05
7.183799999999999741e+00 4.864710383086662041e+05
7.217999999999999972e+00 4.875420878791281721e+05
7.252200000000000202e+00 4.908299149940708885e+05
7.286400000000000432e+00 4.961546160146616166e+05
7.320599999999999774e+00 5.021325771001514513e+05
7.354800000000000004e+00 5.073826728285310674e+05
7.389000000000000234e+00 5.112593378804205568e+05
7.423300000000000232e+00 5.142198709562976146e+05
7.457499999999999574e+00 5.174170945201424183e+05
7.491699999999999804e+00 5.216220454284762964e+05
7.525900000000000034e+00 5.261288256652579876e+05
7.560100000000000264e+00 5.295139258105898043e+05
7.594299999999999606e+00 5.317353253500359133e+05
7.628499999999999837e+00 5.340702846108918311e+05
7.662700000000000067e+00 5.375933575548041845e+05
7.696900000000000297e+00 5.424021115409759805e+05
7.731099999999999639e+00 5.479657601987537928e+05
7.765299999999999869e+00 5.542359290875063743e+05
7.799500000000000099e+00 5.619543361777298851e+05
7.833800000000000097e+00 5.713844801025082124e+05
7.868000000000000327e+00 5.818238962281171698e+05
7.902199999999999669e+00 5.925591212009362644e+05
7.936399999999999899e+00 6.030642420417201938e+05
7.970600000000000129e+00 6.129423689009918598e+05
8.004799999999999471e+00 6.221135787883746671e+05
8.038999999999999702e+00 6.306921571335368790e+05
8.073199999999999932e+00 6.384315323242141167e+05
8.107400000000000162e+00 6.449989365136461565e+05
8.141600000000000392e+00 6.509764289618749171e+05
8.175800000000000622e+00 6.569571185853626812e+05
8.210100000000000620e+00 6.630578614699221216e+05
8.244300000000000850e+00 6.690276343898384366e+05
8.278499999999999304e+00 6.739818697134011891e+05
8.312699999999999534e+00 6.770823430692380061e+05
8.346899999999999764e+00 6.787203384161744034e+05
8.381099999999999994e+00 6.797439198857545853e+05
8.415300000000000225e+00 6.809767236010341439e+05
8.449500000000000455e+00 6.830925372599075781e+05
8.483700000000000685e+00 6.861318461028005695e+05
8.517899999999999139e+00 6.894986366083691828e+05
8.552099999999999369e+00 6.929389587184762349e+05
8.586299999999999599e+00 6.970565250965158921e+05
8.620599999999999596e+00 7.028865585026100744e+05
8.654799999999999827e+00 7.119196113884001970e+05
8.689000000000000057e+00 7.263335419015536318e+05
8.723200000000000287e+00 7.479999127402543090e+05
8.757400000000000517e+00 7.765424976873361738e+05
8.791600000000000747e+00 8.068167698977458058e+05
8.825799999999999201e+00 8.295375631621846696e+05
8.859999999999999432e+00 8.376846216582520865e+05
8.894199999999999662e+00 8.318128731360419188e+05
8.928399999999999892e+00 8.183063065877328627e+05
8.962600000000000122e+00 8.035296627822938608e+05
8.996800000000000352e+00 7.903112027609347133e+05
9.031100000000000350e+00 7.792214270314560272e+05
9.065300000000000580e+00 7.704524306086670840e+05
9.099500000000000810e+00 7.639248517443465535e+05
9.133699999999999264e+00 7.591267915881281951e+05
9.167899999999999494e+00 7.555034441504146671e+05
9.202099999999999724e+00 7.530473814576407894e+05
9.236299999999999955e+00 7.519071948776284698e+05
9.270500000000000185e+00 7.516312847629350144e+05
9.304700000000000415e+00 7.514612008358461317e+05
9.338900000000000645e+00 7.511304971817837795e+05
9.373100000000000875e+00 7.506321206118178088e+05
9.407299999999999329e+00 7.497486483368538320e+05
9.441599999999999326e+00 7.482349191474220715e+05
9.475799999999999557e+00 7.457471295057598036e+05
9.509999999999999787e+00 7.424261738366631325e+05
9.544200000000000017e+00 7.387716846148592886e+05
9.578400000000000247e+00 7.352277041663648561e+05
9.612600000000000477e+00 7.320853652671148302e+05
9.646800000000000708e+00 7.293147231894268189e+05
9.680999999999999162e+00 7.269253627330184681e+05
9.715199999999999392e+00 7.249998311985292239e+05
9.749399999999999622e+00 7.236559231722762343e+05
9.783599999999999852e+00 7.231122489098275546e+05
9.817899999999999849e+00 7.238203006790949730e+05
9.852100000000000080e+00 7.261285183075164678e+05
9.886300000000000310e+00 7.300756748431873275e+05
9.920500000000000540e+00 7.355881832662267843e+05
9.954700000000000770e+00 7.424505782140472438e+05
9.988899999999999224e+00 7.501269043590968940e+05
1.002309999999999945e+01 7.579315072721996112e+05
1.005729999999999968e+01 7.646097699022727320e+05
1.009149999999999991e+01 7.691398854935693089e+05
1.012570000000000014e+01 7.722806521733900299e+05
1.015990000000000038e+01 7.759590311226621270e+05
1.019410000000000061e+01 7.811272592765231384e+05
1.022840000000000060e+01 7.875687985261414433e+05
1.026260000000000083e+01 7.948222978062427137e+05
1.029679999999999929e+01 8.030482088890998857e+05
1.033099999999999952e+01 8.125259708968739724e+05
1.036519999999999975e+01 8.230474206156864529e+05
1.039939999999999998e+01 8.341847602947495179e+05
1.043360000000000021e+01 8.455952450397005305e+05
1.046780000000000044e+01 8.568426219399428228e+05
1.050200000000000067e+01 8.670833540212251246e+05
1.053619999999999912e+01 8.758686328149790643e+05
1.057039999999999935e+01 8.835430232813279144e+05
1.060459999999999958e+01 8.905247614502994111e+05
1.063889999999999958e+01 8.968348395118806511e+05
1.067309999999999981e+01 9.018873219475784572e+05
1.070730000000000004e+01 9.047574219976760214e+05
1.074150000000000027e+01 9.053802279152083211e+05
1.077570000000000050e+01 9.047988694452346535e+05
1.080990000000000073e+01 9.045388917815892491e+05
1.084409999999999918e+01 9.056675733287737239e+05
1.087829999999999941e+01 9.082337168800563086e+05
1.091249999999999964e+01 9.115128839101470076e+05
1.094669999999999987e+01 9.144422061732599977e+05
1.098090000000000011e+01 9.160034179575935705e+05
1.101520000000000010e+01 9.156859671920713736e+05
1.104940000000000033e+01 9.138353036362947896e+05
1.108360000000000056e+01 9.112592322928141803e+05
1.111780000000000079e+01 9.084600875850433949e+05
1.115199999999999925e+01 9.050550524373198859e+05
1.118619999999999948e+01 9.008931589251408586e+05
1.122039999999999971e+01 8.967330919684926048e+05
1.125459999999999994e+01 8.925915932750643697e+05
1.128880000000000017e+01 8.877249015972057823e+05
1.132300000000000040e+01 8.826356564087271690e+05
1.135720000000000063e+01 8.781467696528285742e+05
1.139140000000000086e+01 8.736297121718107956e+05
1.142570000000000086e+01 8.685438711810075911e+05
1.145989999999999931e+01 8.632284392918233061e+05
1.149409999999999954e+01 8.586328216965539614e+05
1.152829999999999977e+01 8.558746662949791644e+05
1.156250000000000000e+01 8.553302217774995370e+05
1.159670000000000023e+01 8.564832613665193785e+05
1.163090000000000046e+01 8.592873311333698221e+05
1.166510000000000069e+01 8.637787916073846864e+05
1.169929999999999914e+01 8.687165853942104150e+05
1.173349999999999937e+01 8.724810177052384242e+05
1.176769999999999960e+01 8.748987503427240299e+05
1.180189999999999984e+01 8.767257781220679171e+05
1.183619999999999983e+01 8.782643816567505710e+05
1.187040000000000006e+01 8.791784677552335197e+05
1.190460000000000029e+01 8.785768621490229852e+05
1.193880000000000052e+01 8.758810965422039153e+05
1.197300000000000075e+01 8.721818302032898646e+05
1.200719999999999921e+01 8.694238541833116906e+05
1.204139999999999944e+01 8.682361654140661703e+05
1.207559999999999967e+01 8.679261672093132511e+05
1.210979999999999990e+01 8.672557741705524968e+05
1.214400000000000013e+01 8.657246026704083197e+05
1.217820000000000036e+01 8.637764832619277295e+05
1.221240000000000059e+01 8.621298200888909632e+05
1.224670000000000059e+01 8.610262881071354495e+05
1.228090000000000082e+01 8.605734657879526494e+05
1.231509999999999927e+01 8.608433228496802039e+05
1.234929999999999950e+01 8.615911494124685414e+05
1.238349999999999973e+01 8.622948618702191161e+05
1.241769999999999996e+01 8.627478100370555185e+05
1.245190000000000019e+01 8.628221464940247824e+05
1.248610000000000042e+01 8.621714350999515736e+05
1.252030000000000065e+01 8.609437040033934172e+05
1.255450000000000088e+01 8.600875672386909137e+05
1.258869999999999933e+01 8.602394908119711326e+05
1.262299999999999933e+01 8.611059674682534533e+05
1.265719999999999956e+01 8.621433542538454058e+05
1.269139999999999979e+01 8.631773455227968516e+05
1.272560000000000002e+01 8.646705083515532315e+05
1.275980000000000025e+01 8.676451620008643949e+05
1.279400000000000048e+01 8.733545234846754465e+05
1.282820000000000071e+01 8.825021191370023880e+05
1.286239999999999917e+01 8.943769862463386962e+05
1.289659999999999940e+01 9.066747080146543449e+05
1.293079999999999963e+01 9.170081080592551734e+05
1.296499999999999986e+01 9.250854217240604339e+05
1.299920000000000009e+01 9.322838777973990655e+05
1.303350000000000009e+01 9.389669758382533910e+05
1.306770000000000032e+01 9.437507949553562794e+05
1.310190000000000055e+01 9.453771536817955784e+05
1.313610000000000078e+01 9.441589994687992148e+05
1.317029999999999923e+01 9.417759137143917615e+05
1.320449999999999946e+01 9.394521149978941539e+05
1.323869999999999969e+01 9.375815198880936950e+05
1.327289999999999992e+01 9.363853857421001885e+05
1.330710000000000015e+01 9.355677625368613517e+05
1.334130000000000038e+01 9.347036927909380756e+05
1.337550000000000061e+01 9.332281918387379264e+05
1.340970000000000084e+01 9.302289313777114730e+05
1.344400000000000084e+01 9.255291404687134782e+05
1.347819999999999929e+01 9.197352911612850148e+05
1.351239999999999952e+01 9.131723290741224773e+05
1.354659999999999975e+01 9.062061294837255264e+05
1.358079999999999998e+01 8.991299959747178946e+05
1.361500000000000021e+01 8.918259228665379342e+05
