# energy(eV) alpha
0.000000000000000000e+00 0.000000000000000000e+00
4.120000000000000051e-02 1.575958381879497328e+00
8.229999999999999816e-02 6.295459107516431452e+00
1.234999999999999987e-01 1.416794473411905031e+01
1.647000000000000131e-01 2.518620520666796025e+01
2.058000000000000107e-01 3.965385537806608340e+01
2.469999999999999973e-01 5.720570478762202526e+01
2.882000000000000117e-01 7.817906801663527006e+01
3.292999999999999816e-01 1.026307656225356624e+02
3.704999999999999960e-01 1.304120050093357293e+02
4.117000000000000104e-01 1.624627836032233574e+02
4.527999999999999803e-01 1.979395339928032911e+02
4.939999999999999947e-01 2.376905481015398038e+02
5.352000000000000091e-01 2.814283457675486488e+02
5.763000000000000345e-01 3.300788479951961563e+02
6.175000000000000488e-01 3.830438286097381706e+02
6.585999999999999632e-01 4.407874017848835138e+02
6.997999999999999776e-01 5.041541261748307079e+02
7.409999999999999920e-01 5.733290579105697589e+02
7.821000000000000174e-01 6.484758497472365661e+02
8.233000000000000318e-01 7.299857576069125571e+02
8.645000000000000462e-01 8.200516908047353581e+02
9.055999999999999606e-01 9.155300862861271298e+02
9.467999999999999750e-01 1.021815389544786740e+03
9.879999999999999893e-01 1.137935713138577739e+03
1.029099999999999904e+00 1.262627607830718944e+03
1.070300000000000029e+00 1.401368077312327387e+03
1.111499999999999932e+00 1.551386664144704582e+03
1.152600000000000069e+00 1.718276128524572187e+03
1.193799999999999972e+00 1.902288020238090894e+03
1.235000000000000098e+00 2.105970560109197777e+03
1.276100000000000012e+00 2.332946075730768371e+03
1.317299999999999915e+00 2.589657194974526647e+03
1.358500000000000041e+00 2.876357577727635544e+03
1.399599999999999955e+00 3.203551253077541787e+03
1.440800000000000081e+00 3.577852520618384006e+03
1.481999999999999984e+00 4.012102067705045556e+03
1.523099999999999898e+00 4.522092608958763776e+03
1.564300000000000024e+00 5.128797059343174624e+03
1.605499999999999927e+00 5.862725584868395345e+03
1.646600000000000064e+00 6.766464363357167713e+03
1.687799999999999967e+00 7.908706412822298262e+03
1.729000000000000092e+00 9.391928516378360655e+03
1.770100000000000007e+00 1.138475702376140362e+04
1.811299999999999910e+00 1.417010784784192037e+04
1.852500000000000036e+00 1.822659771388623267e+04
1.893599999999999950e+00 2.434627284710568347e+04
1.934800000000000075e+00 3.349556719094872824e+04
1.975899999999999990e+00 4.592356149633478344e+04
2.017100000000000115e+00 6.070466112968562084e+04
2.058300000000000018e+00 7.486854204641556134e+04
2.099400000000000155e+00 8.354128340713543002e+04
2.140600000000000058e+00 8.491788592540325772e+04
2.181799999999999962e+00 7.645490022238771780e+04
2.222900000000000098e+00 6.467317399368483166e+04
2.264100000000000001e+00 5.705273853608957143e+04
2.305299999999999905e+00 5.466737416309987748e+04
2.346400000000000041e+00 5.568009216557484615e+04
2.387599999999999945e+00 5.831978264937367931e+04
2.428799999999999848e+00 6.215006804149725940e+04
2.469899999999999984e+00 6.892891111983603332e+04
2.511099999999999888e+00 7.645292874285529251e+04
2.552299999999999791e+00 7.962002158212872746e+04
2.593399999999999928e+00 8.142872779426975467e+04
2.634599999999999831e+00 8.574281894506185199e+04
2.675800000000000178e+00 8.897935346072670654e+04
2.716899999999999871e+00 8.684331615262666310e+04
2.758100000000000218e+00 8.271317597275144362e+04
2.799300000000000122e+00 8.151727247530060413e+04
2.840399999999999814e+00 8.435585782692737121e+04
2.881600000000000161e+00 8.954139926937507698e+04
2.922800000000000065e+00 9.619514464428026986e+04
2.963900000000000201e+00 1.046698576983455423e+05
3.005100000000000104e+00 1.153763718123601284e+05
3.046300000000000008e+00 1.283107167793588596e+05
3.087400000000000144e+00 1.413981092911638261e+05
3.128600000000000048e+00 1.531833833891533432e+05
3.169700000000000184e+00 1.641080205037764390e+05
3.210900000000000087e+00 1.753283658274853078e+05
3.252099999999999991e+00 1.862896844716347696e+05
3.293200000000000127e+00 1.964168949817953398e+05
3.334400000000000031e+00 2.071815829122977448e+05
3.375599999999999934e+00 2.208744958966762642e+05
3.416700000000000070e+00 2.363945730087018164e+05
3.457899999999999974e+00 2.528859064970973704e+05
3.499099999999999877e+00 2.707622703633148922e+05
3.540200000000000014e+00 2.895658411362703773e+05
3.581399999999999917e+00 3.088928099516602815e+05
3.622599999999999820e+00 3.280293030488084769e+05
3.663699999999999957e+00 3.451866615706510493e+05
3.704899999999999860e+00 3.606089603416544851e+05
3.746100000000000207e+00 3.768354537545911153e+05
3.787199999999999900e+00 3.932145824356375961e+05
3.828399999999999803e+00 4.062285948026578990e+05
3.869600000000000151e+00 4.136655275338334613e+05
3.910699999999999843e+00 4.152500999579561176e+05
3.951900000000000190e+00 4.129165638569126022e+05
3.993100000000000094e+00 4.101601251729765791e+05
4.034200000000000230e+00 4.101077003720270004e+05
4.075400000000000134e+00 4.118697134811192518e+05
4.116600000000000037e+00 4.139814166492120712e+05
4.157700000000000173e+00 4.170713012643341208e+05
4.198900000000000077e+00 4.214457620720071136e+05
4.240099999999999980e+00 4.261883036530254176e+05
4.281200000000000117e+00 4.308833079648616840e+05
4.322400000000000020e+00 4.353398609017380513e+05
4.363599999999999923e+00 4.400721446332889027e+05
4.404700000000000060e+00 4.462141609981830698e+05
4.445899999999999963e+00 4.535799781694422127e+05
4.487000000000000099e+00 4.615904903745890479e+05
4.528200000000000003e+00 4.723964252813492785e+05
4.569399999999999906e+00 4.869933769844018971e+05
4.610500000000000043e+00 5.016847285267616389e+05
4.651699999999999946e+00 5.123048277243161574e+05
4.692899999999999849e+00 5.177641596902840538e+05
4.733999999999999986e+00 5.200898487840050366e+05
4.775199999999999889e+00 5.212270970318191685e+05
4.816399999999999793e+00 5.205576772617874667e+05
4.857499999999999929e+00 5.164362580012467806e+05
4.898699999999999832e+00 5.090054407187702600e+05
4.939899999999999736e+00 5.013261138493010076e+05
4.980999999999999872e+00 4.966679842137573287e+05
5.022199999999999775e+00 4.956988150344603346e+05
5.063399999999999679e+00 4.959590995240103803e+05
5.104499999999999815e+00 4.943390786504076095e+05
5.145699999999999719e+00 4.904290024066205369e+05
5.186899999999999622e+00 4.850999492128963466e+05
5.227999999999999758e+00 4.807820925791984191e+05
5.269199999999999662e+00 4.788049060421693721e+05
5.310399999999999565e+00 4.778234319431588519e+05
5.351499999999999702e+00 4.751687577738419641e+05
5.392699999999999605e+00 4.678273791767717921e+05
5.433900000000000396e+00 4.561609944715783349e+05
5.474999999999999645e+00 4.433963326380694052e+05
5.516200000000000436e+00 4.317831916129741585e+05
5.557400000000000340e+00 4.219000606225993834e+05
5.598499999999999588e+00 4.148797449965053820e+05
5.639700000000000379e+00 4.116526123586858739e+05
5.680799999999999628e+00 4.123045401548661175e+05
5.722000000000000419e+00 4.154827840290542808e+05
5.763200000000000323e+00 4.197136871063074213e+05
5.804299999999999571e+00 4.242047426622939529e+05
5.845500000000000362e+00 4.299072060624407604e+05
5.886700000000000266e+00 4.381348161958947894e+05
5.927800000000000402e+00 4.492642741617823485e+05
5.969000000000000306e+00 4.627320402575975168e+05
6.010200000000000209e+00 4.779357655406807316e+05
6.051300000000000345e+00 4.948373163088244037e+05
6.092500000000000249e+00 5.139896581753481296e+05
6.133700000000000152e+00 5.354746781024652300e+05
6.174800000000000288e+00 5.579821772544697160e+05
6.216000000000000192e+00 5.792123862477893708e+05
6.257200000000000095e+00 5.996125898941189516e+05
6.298300000000000232e+00 6.197593560134411091e+05
6.339500000000000135e+00 6.385560967238019221e+05
6.380700000000000038e+00 6.544440623770208331e+05
6.421800000000000175e+00 6.676557869587874738e+05
6.463000000000000078e+00 6.794590745050200494e+05
6.504199999999999982e+00 6.916253648257961031e+05
6.545300000000000118e+00 7.053112188408673974e+05
6.586500000000000021e+00 7.197961372713800520e+05
6.627699999999999925e+00 7.327242905224903952e+05
6.668800000000000061e+00 7.434747790835287888e+05
6.709999999999999964e+00 7.519709243140851613e+05
6.751199999999999868e+00 7.575195197593150660e+05
6.792300000000000004e+00 7.602826989961103536e+05
6.833499999999999908e+00 7.612107457660908112e+05
6.874600000000000044e+00 7.620158455315736355e+05
6.915799999999999947e+00 7.637551389624427538e+05
6.956999999999999851e+00 7.656059509263349464e+05
6.998099999999999987e+00 7.675222717875617091e+05
7.039299999999999891e+00 7.710125267683643615e+05
7.080499999999999794e+00 7.758889924681996927e+05
7.121599999999999930e+00 7.810329464129685657e+05
7.162799999999999834e+00 7.862514839045332046e+05
7.203999999999999737e+00 7.914871086142122513e+05
7.245099999999999874e+00 7.956972424282077700e+05
7.286299999999999777e+00 7.999662736244596308e+05
7.327499999999999680e+00 8.063033398754347581e+05
7.368599999999999817e+00 8.141149283752040938e+05
7.409799999999999720e+00 8.224904238513020100e+05
7.450999999999999623e+00 8.317446145768187707e+05
7.492099999999999760e+00 8.404522888910690090e+05
7.533299999999999663e+00 8.469646938154364470e+05
7.574499999999999567e+00 8.511525395771099720e+05
7.615599999999999703e+00 8.544820944798624841e+05
7.656799999999999606e+00 8.599240110880070133e+05
7.698000000000000398e+00 8.687919668856940698e+05
7.739099999999999646e+00 8.789490233208269347e+05
7.780300000000000438e+00 8.868414974340429762e+05
7.821500000000000341e+00 8.905428373691167217e+05
7.862599999999999589e+00 8.914215664306855761e+05
7.903800000000000381e+00 8.923766716030593961e+05
7.945000000000000284e+00 8.938460815916936845e+05
7.986100000000000421e+00 8.955272601067082724e+05
8.027300000000000324e+00 8.974219559231683379e+05
8.068500000000000227e+00 8.999372270955492277e+05
8.109600000000000364e+00 9.043539684115384007e+05
8.150800000000000267e+00 9.104054829067259561e+05
8.191900000000000404e+00 9.155135676372400485e+05
8.233100000000000307e+00 9.193897377709456487e+05
8.274300000000000210e+00 9.237260198585670441e+05
8.315400000000000347e+00 9.285698340396540007e+05
8.356600000000000250e+00 9.336042353907517390e+05
8.397800000000000153e+00 9.384031755847574677e+05
8.438900000000000290e+00 9.426822703894005390e+05
8.480100000000000193e+00 9.466475332800332690e+05
8.521300000000000097e+00 9.508266173829921754e+05
8.562400000000000233e+00 9.552840779288795311e+05
8.603600000000000136e+00 9.601798166989119491e+05
8.644800000000000040e+00 9.659640273017381551e+05
8.685900000000000176e+00 9.714037238036519848e+05
8.727100000000000080e+00 9.756088829239631305e+05
8.768299999999999983e+00 9.794121223855471471e+05
8.809400000000000119e+00 9.828882428932221374e+05
8.850600000000000023e+00 9.865446463364496594e+05
8.891799999999999926e+00 9.908396687871390022e+05
8.932900000000000063e+00 9.954045132694919594e+05
8.974099999999999966e+00 9.990931290512250271e+05
9.015299999999999869e+00 1.000673607693806989e+06
9.056400000000000006e+00 9.998917220524520380e+05
9.097599999999999909e+00 9.979974596765177557e+05
9.138799999999999812e+00 9.955359485734706977e+05
9.179899999999999949e+00 9.918670227331836941e+05
9.221099999999999852e+00 9.869079777331154328e+05
9.262299999999999756e+00 9.814969822932808893e+05
9.303399999999999892e+00 9.760269383918958483e+05
9.344599999999999795e+00 9.712936789366487646e+05
9.385699999999999932e+00 9.681380720105032669e+05
9.426899999999999835e+00 9.652742994418427115e+05
9.468099999999999739e+00 9.606507042542597046e+05
9.509199999999999875e+00 9.554403290515374392e+05
9.550399999999999778e+00 9.518226889866882702e+05
9.591599999999999682e+00 9.496623851641631918e+05
9.632699999999999818e+00 9.476289862942947075e+05
9.673899999999999721e+00 9.451516267440166557e+05
9.715099999999999625e+00 9.423186367781512672e+05
9.756199999999999761e+00 9.384892936023902148e+05
9.797399999999999665e+00 9.337050705200973898e+05
9.838599999999999568e+00 9.288818626107603777e+05
9.879699999999999704e+00 9.249265641019580653e+05
9.920899999999999608e+00 9.229982692372135352e+05
9.962099999999999511e+00 9.236515966321825981e+05
1.000319999999999965e+01 9.253333796302709961e+05
1.004439999999999955e+01 9.265017871002316242e+05
1.008559999999999945e+01 9.278611719480241882e+05
1.012669999999999959e+01 9.301733846754154656e+05
1.016789999999999949e+01 9.327410109033409972e+05
1.020909999999999940e+01 9.338229565930806566e+05
1.025019999999999953e+01 9.327024772859700024e+05
1.029139999999999944e+01 9.304018893288753461e+05
1.033259999999999934e+01 9.288610109093210194e+05
1.037369999999999948e+01 9.292222475434580119e+05
1.041489999999999938e+01 9.308439921033064602e+05
1.045609999999999928e+01 9.327743659562407993e+05
1.049719999999999942e+01 9.344068307223850861e+05
1.053839999999999932e+01 9.343128344064601697e+05
1.057959999999999923e+01 9.308436440978152677e+05
1.062069999999999936e+01 9.245373426037118770e+05
1.066189999999999927e+01 9.166185288684065454e+05
1.070299999999999940e+01 9.075016584230982699e+05
1.074419999999999931e+01 8.976882350030071102e+05
1.078539999999999921e+01 8.863154818368596025e+05
1.082649999999999935e+01 8.736476332531748340e+05
1.086769999999999925e+01 8.612244951138832839e+05
1.090889999999999915e+01 8.484419419886530377e+05
1.094999999999999929e+01 8.344090248701534001e+05
1.099119999999999919e+01 8.199492589484363561e+05
1.103240000000000087e+01 8.064522802130267955e+05
1.107349999999999923e+01 7.950033654152447125e+05
1.111469999999999914e+01 7.860956022659798618e+05
1.115590000000000082e+01 7.795160207457931247e+05
1.119699999999999918e+01 7.746254405666340608e+05
1.123820000000000086e+01 7.709653987567108124e+05
1.127940000000000076e+01 7.680683219823957188e+05
1.132049999999999912e+01 7.659495950404531322e+05
1.136170000000000080e+01 7.653236148505858146e+05
1.140290000000000070e+01 7.657400214853442740e+05
1.144400000000000084e+01 7.662275619782592403e+05
1.148520000000000074e+01 7.660795785270673223e+05
1.152640000000000065e+01 7.656447314022529172e+05
1.156750000000000078e+01 7.650710437244203640e+05
1.160870000000000068e+01 7.636645240233266959e+05
1.164990000000000059e+01 7.616039008367984788e+05
1.169100000000000072e+01 7.601118630181677872e+05
1.173220000000000063e+01 7.591425380492528202e+05
1.177340000000000053e+01 7.581781366030409699e+05
1.181450000000000067e+01 7.577531739703409839e+05
1.185570000000000057e+01 7.593033098754427629e+05
1.189680000000000071e+01 7.629568391912587686e+05
1.193800000000000061e+01 7.671115931255222531e+05
1.197920000000000051e+01 7.701037947760665556e+05
1.202030000000000065e+01 7.718336383975978242e+05
1.206150000000000055e+01 7.728656492341554258e+05
1.210270000000000046e+01 7.731894405269712443e+05
1.214380000000000059e+01 7.718707212211999577e+05
1.218500000000000050e+01 7.694715971058023861e+05
1.222620000000000040e+01 7.692577380630152766e+05
1.226730000000000054e+01 7.746039443585936679e+05
1.230850000000000044e+01 7.857225547440951923e+05
1.234970000000000034e+01 7.993117988809271483e+05
1.239080000000000048e+01 8.116863815923599759e+05
1.243200000000000038e+01 8.215343262307771947e+05
1.247320000000000029e+01 8.300152587132775225e+05
1.251430000000000042e+01 8.371049834533934481e+05
1.255550000000000033e+01 8.410627836223695194e+05
1.259670000000000023e+01 8.414704696049331687e+05
1.263780000000000037e+01 8.398166503891127650e+05
1.267900000000000027e+01 8.368581472006366821e+05
1.272020000000000017e+01 8.334535825088722631e+05
1.276130000000000031e+01 8.297224484794406453e+05
1.280250000000000021e+01 8.254893418093153741e+05
1.284370000000000012e+01 8.215623627726810519e+05
1.288480000000000025e+01 8.173892372913742438e+05
1.292600000000000016e+01 8.117564900759361917e+05
1.296720000000000006e+01 8.055013900946094655e+05
1.300830000000000020e+01 8.012763935053308960e+05
1.304950000000000010e+01 8.010660905134256463e+05
1.309070000000000000e+01 8.030537333258186700e+05
1.313180000000000014e+01 8.050594939893624978e+05
1.317300000000000004e+01 8.070106408102110727e+05
1.321410000000000018e+01 8.087219070557435043e+05
1.325530000000000008e+01 8.108561171039842302e+05
1.329649999999999999e+01 8.152164335271088639e+05
1.333760000000000012e+01 8.221538518168047303e+05
1.337880000000000003e+01 8.308909162071135361e+05
1.341999999999999993e+01 8.407122040894395905e+05
1.346110000000000007e+01 8.517757477711780230e+05
1.350229999999999997e+01 8.643658391056192340e+05
1.354349999999999987e+01 8.779762739966510562e+05
1.358460000000000001e+01 8.919907506709620357e+05
1.362579999999999991e+01 9.056361790288703050e+05
1.366699999999999982e+01 9.183165797221099492e+05
1.370809999999999995e+01 9.302650566556733102e+05
1.374929999999999986e+01 9.414631207048961660e+05
1.379049999999999976e+01 9.513485198681137990e+05
1.383159999999999989e+01 9.603910511355528142e+05
1.387279999999999980e+01 9.691960019440976903e+05
1.391399999999999970e+01 9.772387204770568060e+05
1.395509999999999984e+01 9.838406513117839349e+05
1.399629999999999974e+01 9.884891205169875175e+05
1.403749999999999964e+01 9.903537255702839466e+05
1.407859999999999978e+01 9.891040888733288739e+05
1.411979999999999968e+01 9.854875459939631401e+05
1.416099999999999959e+01 9.809800325991908321e+05
1.420209999999999972e+01 9.772612463171422714e+05
1.424329999999999963e+01 9.765557446219747653e+05
1.428449999999999953e+01 9.781165697994031943e+05
1.432559999999999967e+01 9.790711250500974711e+05
1.436679999999999957e+01 9.791786823213127209e+05
1.440789999999999971e+01 9.792806670607579872e+05
1.444909999999999961e+01 9.782990398444795283e+05
1.449029999999999951e+01 9.755459054268609034e+05
1.453139999999999965e+01 9.721400272768908180e+05
1.457259999999999955e+01 9.698176924523613416e+05
1.461379999999999946e+01 9.680904921037915628e+05
1.465489999999999959e+01 9.646051390528334305e+05
1.469609999999999950e+01 9.586803361994052539e+05
1.473729999999999940e+01 9.525573244421235286e+05
1.477839999999999954e+01 9.478241874159449944e+05
1.481959999999999944e+01 9.444190215442256304e+05
1.486079999999999934e+01 9.436933194281233009e+05
1.490189999999999948e+01 9.460889139309716411e+05
1.494309999999999938e+01 9.498713067206843989e+05
1.498429999999999929e+01 9.540232224313219776e+05
1.502539999999999942e+01 9.581482312532367650e+05
1.506659999999999933e+01 9.619583973305553664e+05
1.510779999999999923e+01 9.661248386679603718e+05
1.514889999999999937e+01 9.714295156727392459e+05
1.519009999999999927e+01 9.769784674881914398e+05
1.523129999999999917e+01 9.794370194724403555e+05
1.527239999999999931e+01 9.768991446667261189e+05
1.531359999999999921e+01 9.702558185197992716e+05
1.535479999999999912e+01 9.615618722305209376e+05
1.539589999999999925e+01 9.542978771361337276e+05
1.543709999999999916e+01 9.516101554459140170e+05
1.547830000000000084e+01 9.527285793650837149e+05
1.551939999999999920e+01 9.558371045429834630e+05
1.556060000000000088e+01 9.602413278128267266e+05
1.560180000000000078e+01 9.656232762549425242e+05
1.564289999999999914e+01 9.721625851436029188e+05
1.568410000000000082e+01 9.800167836818572832e+05
1.572519999999999918e+01 9.870715552599459188e+05
1.576640000000000086e+01 9.902671756017256994e+05
1.580760000000000076e+01 9.892811330273943022e+05
1.584869999999999912e+01 9.847561752994413255e+05
1.588990000000000080e+01 9.772112819606506964e+05
1.593110000000000070e+01 9.677509983760247706e+05
1.597220000000000084e+01 9.585354251280879835e+05
1.601340000000000074e+01 9.513759433468644274e+05
1.605460000000000065e+01 9.455171731164674275e+05
1.609570000000000078e+01 9.386182816935629817e+05
1.613690000000000069e+01 9.303799854252159130e+05
1.617810000000000059e+01 9.203177749643436400e+05
1.621920000000000073e+01 9.086379592184755020e+05
1.626040000000000063e+01 8.964632279856610112e+05
1.630160000000000053e+01 8.848889042018763721e+05
1.634270000000000067e+01 8.756601996003839886e+05
1.638390000000000057e+01 8.702039013524900656e+05
