# energy(eV) alpha
0.000000000000000000e+00 0.000000000000000000e+00
3.590000000000000135e-02 2.176986897374542373e-01
7.180000000000000271e-02 8.707791721642369476e-01
1.076000000000000012e-01 1.957363892315376663e+00
1.434999999999999887e-01 3.480379658176993907e+00
1.794000000000000039e-01 5.438559158658305748e+00
2.152999999999999914e-01 7.831692212272582054e+00
2.510999999999999899e-01 1.065531361150484990e+01
2.869999999999999774e-01 1.391728518933808445e+01
3.229000000000000203e-01 1.859173525642604829e+01
3.588000000000000078e-01 2.283051236329933431e+01
3.946000000000000063e-01 2.749631581762224997e+01
4.304999999999999938e-01 3.260114942154480389e+01
4.663999999999999813e-01 3.813925742481303161e+01
5.022999999999999687e-01 4.410964384769127378e+01
5.382000000000000117e-01 5.051175841200899441e+01
5.739999999999999547e-01 5.733501672715416220e+01
6.098999999999999977e-01 6.644499772366381762e+01
6.458000000000000407e-01 7.424755273298391955e+01
6.816999999999999726e-01 8.247939202154987015e+01
7.175000000000000266e-01 9.112705653588209032e+01
7.533999999999999586e-01 1.002163270031835793e+02
7.893000000000000016e-01 1.121163113169448167e+02
8.252000000000000446e-01 1.221667091564082881e+02
8.610999999999999766e-01 1.326424217354088171e+02
8.969000000000000306e-01 1.462371259302430246e+02
9.327999999999999625e-01 1.576675410342938903e+02
9.687000000000000055e-01 1.695221442868464123e+02
1.004599999999999937e+00 1.848270002412363056e+02
1.040399999999999991e+00 1.976123736878012664e+02
1.076300000000000034e+00 2.140788663841097446e+02
1.112200000000000077e+00 2.278264177684984872e+02
1.148099999999999898e+00 2.454474821621798242e+02
1.183899999999999952e+00 2.601112600282343692e+02
1.219799999999999995e+00 2.788845285690738365e+02
1.255700000000000038e+00 2.982778517168397912e+02
1.291600000000000081e+00 3.144122660216138456e+02
1.327499999999999902e+00 3.349491344635374617e+02
1.363299999999999956e+00 3.560732371311576685e+02
1.399199999999999999e+00 3.778437748554298423e+02
1.435100000000000042e+00 3.959236206957680224e+02
1.471000000000000085e+00 4.188121755410159608e+02
1.506799999999999917e+00 4.422894846599482435e+02
1.542699999999999960e+00 4.663960242119971440e+02
1.578600000000000003e+00 4.958304620643555154e+02
1.614500000000000046e+00 5.212502186144591860e+02
1.650400000000000089e+00 5.472705897880437078e+02
1.686199999999999921e+00 5.738450641664775276e+02
1.722099999999999964e+00 6.061949436900464434e+02
1.758000000000000007e+00 6.340928022412633709e+02
1.793900000000000050e+00 6.679230540492561659e+02
1.829700000000000104e+00 6.970608374681530677e+02
1.865599999999999925e+00 7.323547020398787026e+02
1.901499999999999968e+00 7.684321620345934889e+02
1.937400000000000011e+00 8.052757030649619310e+02
1.973200000000000065e+00 8.428658741514759640e+02
2.009100000000000108e+00 8.812397989904674205e+02
2.044999999999999929e+00 9.264347111720512657e+02
2.080900000000000194e+00 9.664369721931554977e+02
2.116800000000000015e+00 1.013435431748213318e+03
2.152600000000000069e+00 1.054963247616223271e+03
2.188499999999999890e+00 1.103739853325815147e+03
2.224400000000000155e+00 1.153437292932080254e+03
2.260299999999999976e+00 1.204047915768305757e+03
2.296100000000000030e+00 1.262259252266938574e+03
2.331999999999999851e+00 1.314769102518347609e+03
2.367900000000000116e+00 1.375112968546748107e+03
2.403799999999999937e+00 1.436531395823112007e+03
2.439700000000000202e+00 1.506152860477610602e+03
2.475499999999999812e+00 1.569723943281916036e+03
2.511400000000000077e+00 1.641703517121933601e+03
2.547299999999999898e+00 1.714877251901398949e+03
2.583200000000000163e+00 1.796777423895516222e+03
2.619000000000000217e+00 1.879990110895010503e+03
2.654900000000000038e+00 1.964578898294771079e+03
2.690799999999999859e+00 2.058282806901861932e+03
2.726700000000000124e+00 2.153471112931193147e+03
2.762500000000000178e+00 2.258021318977004285e+03
2.798399999999999999e+00 2.372306464940425940e+03
2.834299999999999820e+00 2.488330492459917423e+03
2.870200000000000085e+00 2.614352616186021805e+03
2.906099999999999905e+00 2.742189457588901860e+03
2.941899999999999959e+00 2.888547477345563038e+03
2.977799999999999780e+00 3.037129210226763462e+03
3.013700000000000045e+00 3.204885062850449231e+03
3.049599999999999866e+00 3.383589988614668982e+03
3.085399999999999920e+00 3.582074944012517790e+03
3.121300000000000185e+00 3.792153241895250176e+03
3.157200000000000006e+00 4.022679449415077215e+03
3.193099999999999827e+00 4.283030699654268574e+03
3.229000000000000092e+00 4.564655414281020057e+03
3.264800000000000146e+00 4.886030460025801403e+03
3.300699999999999967e+00 5.247956427441286905e+03
3.336599999999999788e+00 5.650952989349784730e+03
3.372500000000000053e+00 6.104812612805107165e+03
3.408300000000000107e+00 6.638154002704230152e+03
3.444199999999999928e+00 7.252428106137596842e+03
3.480100000000000193e+00 7.986112070843453694e+03
3.516000000000000014e+00 8.849988832346096387e+03
3.551800000000000068e+00 9.902446106853596575e+03
3.587699999999999889e+00 1.119327380581765283e+04
3.623600000000000154e+00 1.281995650147187371e+04
3.659499999999999975e+00 1.491960240427220015e+04
3.695399999999999796e+00 1.767726469610565982e+04
3.731199999999999850e+00 2.143291136638514581e+04
3.767100000000000115e+00 2.670290913126129453e+04
3.802999999999999936e+00 3.432043322606034053e+04
3.838900000000000201e+00 4.557163014325276163e+04
3.874699999999999811e+00 6.179566510817583912e+04
3.910600000000000076e+00 8.269010148844188370e+04
3.946499999999999897e+00 1.032953113604930695e+05
3.982400000000000162e+00 1.162196255935053778e+05
4.018299999999999983e+00 1.192660161855379120e+05
4.054100000000000037e+00 1.156226822519341222e+05
4.089999999999999858e+00 1.076579679079265916e+05
4.125899999999999679e+00 9.504877062266298162e+04
4.161800000000000388e+00 8.302543568565146415e+04
4.197600000000000442e+00 7.694731150288338540e+04
4.233500000000000263e+00 7.516126762823013996e+04
4.269400000000000084e+00 7.166138666092848871e+04
4.305299999999999905e+00 6.386342319875046087e+04
4.341099999999999959e+00 5.541917022103816998e+04
4.376999999999999780e+00 4.921773983598926861e+04
4.412899999999999601e+00 4.468749455580150970e+04
4.448800000000000310e+00 4.129107107393491606e+04
4.484700000000000131e+00 3.941084449399347068e+04
4.520500000000000185e+00 3.839570853967490984e+04
4.556400000000000006e+00 3.669586001225131622e+04
4.592299999999999827e+00 3.433924080098669219e+04
4.628199999999999648e+00 3.253826928326502457e+04
4.663999999999999702e+00 3.180102743549718070e+04
4.699900000000000411e+00 3.160290344218048995e+04
4.735800000000000232e+00 3.147010844293583796e+04
4.771700000000000053e+00 3.187958587600637838e+04
4.807599999999999874e+00 3.343612257280019548e+04
4.843399999999999928e+00 3.610210841382664512e+04
4.879299999999999748e+00 3.939942687948177627e+04
4.915199999999999569e+00 4.327576067957018677e+04
4.951100000000000279e+00 4.848594802669875207e+04
4.986900000000000333e+00 5.614206783220081707e+04
5.022800000000000153e+00 6.676251699945949076e+04
5.058699999999999974e+00 7.924096237874425424e+04
5.094599999999999795e+00 9.119600867591815768e+04
5.130399999999999849e+00 1.010028686639396183e+05
5.166299999999999670e+00 1.082773333991881955e+05
5.202200000000000379e+00 1.143461974656474194e+05
5.238100000000000200e+00 1.215623628245073196e+05
5.274000000000000021e+00 1.312569140715210815e+05
5.309800000000000075e+00 1.428447317010805709e+05
5.345699999999999896e+00 1.561921687925267324e+05
5.381599999999999717e+00 1.707105338798282901e+05
5.417500000000000426e+00 1.819024919763915532e+05
5.453299999999999592e+00 1.857182148758856056e+05
5.489200000000000301e+00 1.849989877017975377e+05
5.525100000000000122e+00 1.871347986601777957e+05
5.560999999999999943e+00 1.959774114756505296e+05
5.596899999999999764e+00 2.088291821156271908e+05
5.632699999999999818e+00 2.199247913915273675e+05
5.668599999999999639e+00 2.247976262468595232e+05
5.704500000000000348e+00 2.242344513528395328e+05
5.740400000000000169e+00 2.210060972845995566e+05
5.776200000000000223e+00 2.172500166734874365e+05
5.812100000000000044e+00 2.167139996020683320e+05
5.847999999999999865e+00 2.204995535034563218e+05
5.883899999999999686e+00 2.260738104941609490e+05
5.919699999999999740e+00 2.301401933088071237e+05
5.955599999999999561e+00 2.327203381781232310e+05
5.991500000000000270e+00 2.370070853022916126e+05
6.027400000000000091e+00 2.459533628383251489e+05
6.063299999999999912e+00 2.602186422906246735e+05
6.099099999999999966e+00 2.786247574124542298e+05
6.134999999999999787e+00 2.993304119026262197e+05
6.170899999999999608e+00 3.212187586844079779e+05
6.206800000000000317e+00 3.439710894214707660e+05
6.242600000000000371e+00 3.680400594054549583e+05
6.278500000000000192e+00 3.941782113523269654e+05
6.314400000000000013e+00 4.192485534477722831e+05
6.350299999999999834e+00 4.360009742959640571e+05
6.386199999999999655e+00 4.456824351058090688e+05
6.421999999999999709e+00 4.545148429856950534e+05
6.457900000000000418e+00 4.633633799518325832e+05
6.493800000000000239e+00 4.714090717213427415e+05
6.529700000000000060e+00 4.789304399853199720e+05
6.565500000000000114e+00 4.874280214105528430e+05
6.601399999999999935e+00 5.017048967290082946e+05
6.637299999999999756e+00 5.264135873063101899e+05
6.673199999999999577e+00 5.622624938969254727e+05
6.708999999999999631e+00 6.053506226337656844e+05
6.744900000000000340e+00 6.456959946472481824e+05
6.780800000000000161e+00 6.740825074292767094e+05
6.816699999999999982e+00 6.903417061954885721e+05
6.852599999999999802e+00 6.980700809769019252e+05
6.888399999999999856e+00 7.003443673386496957e+05
6.924299999999999677e+00 6.993394586675383616e+05
6.960200000000000387e+00 6.947902158048441634e+05
6.996100000000000207e+00 6.860676232541073114e+05
7.031900000000000261e+00 6.756326687370275613e+05
7.067800000000000082e+00 6.680134534350798931e+05
7.103699999999999903e+00 6.630405851156442659e+05
7.139599999999999724e+00 6.549653613001866033e+05
7.175500000000000433e+00 6.406031984633697430e+05
7.211299999999999599e+00 6.232698003482265631e+05
7.247200000000000308e+00 6.060492844817161094e+05
7.283100000000000129e+00 5.882238157060067169e+05
7.318999999999999950e+00 5.693255012420896674e+05
7.354800000000000004e+00 5.501830387700025458e+05
7.390699999999999825e+00 5.331314578273724765e+05
7.426599999999999646e+00 5.219599146059936611e+05
7.462500000000000355e+00 5.194396730279384064e+05
7.498300000000000409e+00 5.241811894120706129e+05
7.534200000000000230e+00 5.338782754843079019e+05
7.570100000000000051e+00 5.476418037720242282e+05
7.605999999999999872e+00 5.605103090557439718e+05
7.641899999999999693e+00 5.662004189893860603e+05
7.677699999999999747e+00 5.672953121654908173e+05
7.713599999999999568e+00 5.706266258343785303e+05
7.749500000000000277e+00 5.779915147603567457e+05
7.785400000000000098e+00 5.875855696224999847e+05
7.821200000000000152e+00 5.949928976408353774e+05
7.857099999999999973e+00 6.003377742919413140e+05
7.892999999999999794e+00 6.055921186009768862e+05
7.928899999999999615e+00 6.114095113009490306e+05
7.964800000000000324e+00 6.225129923585827928e+05
8.000600000000000378e+00 6.433577168569500791e+05
8.036500000000000199e+00 6.691487346472006757e+05
8.072400000000000020e+00 6.893434249396092491e+05
8.108299999999999841e+00 7.007450529665193753e+05
8.144099999999999895e+00 7.039884671416451456e+05
8.179999999999999716e+00 7.012189637252474204e+05
8.215899999999999537e+00 6.936083349123980151e+05
8.251799999999999358e+00 6.815586231440607226e+05
8.287599999999999412e+00 6.682786230642808368e+05
8.323499999999999233e+00 6.579644438803781522e+05
8.359400000000000830e+00 6.509146591776033165e+05
8.395300000000000651e+00 6.452041894542507362e+05
8.431200000000000472e+00 6.392680664284997620e+05
8.467000000000000526e+00 6.346560660369843245e+05
8.502900000000000347e+00 6.379872965351537568e+05
8.538800000000000168e+00 6.536962429818201344e+05
8.574699999999999989e+00 6.779814142144364305e+05
8.610500000000000043e+00 7.035295670075634262e+05
8.646399999999999864e+00 7.273424947045807494e+05
8.682299999999999685e+00 7.495806521435274044e+05
8.718199999999999505e+00 7.693225656343544833e+05
8.754099999999999326e+00 7.836060308725341456e+05
8.789899999999999380e+00 7.882530156560475007e+05
8.825799999999999201e+00 7.814117017058180645e+05
8.861700000000000799e+00 7.645918293699075002e+05
8.897600000000000620e+00 7.410069684768596198e+05
8.933400000000000674e+00 7.150952815859389957e+05
8.969300000000000495e+00 6.905387692029500613e+05
9.005200000000000315e+00 6.670916770559817087e+05
9.041100000000000136e+00 6.438460914310588269e+05
9.076900000000000190e+00 6.236064708860431565e+05
9.112800000000000011e+00 6.071820940610856051e+05
9.148699999999999832e+00 5.901353528245009948e+05
9.184599999999999653e+00 5.702476481217690744e+05
9.220499999999999474e+00 5.489228392058076570e+05
9.256299999999999528e+00 5.270560822501315270e+05
9.292199999999999349e+00 5.068953423512337031e+05
9.328099999999999170e+00 4.892589175721575157e+05
9.364000000000000767e+00 4.709512576071458752e+05
9.399800000000000821e+00 4.530363782204837771e+05
9.435700000000000642e+00 4.405367363250762573e+05
9.471600000000000463e+00 4.355790571502007660e+05
9.507500000000000284e+00 4.371917700562389218e+05
9.543400000000000105e+00 4.445746967609865242e+05
9.579200000000000159e+00 4.560623189107642393e+05
9.615099999999999980e+00 4.676553762005039025e+05
9.650999999999999801e+00 4.775370809181540390e+05
9.686899999999999622e+00 4.864971616181815625e+05
9.722699999999999676e+00 4.933417674583442276e+05
9.758599999999999497e+00 4.956764251413655584e+05
9.794499999999999318e+00 4.957237486522007966e+05
9.830399999999999139e+00 4.980736321512584109e+05
9.866199999999999193e+00 5.014529017069138936e+05
9.902100000000000790e+00 5.038158014740971266e+05
9.938000000000000611e+00 5.070154901945089223e+05
9.973900000000000432e+00 5.127090011730480473e+05
1.000980000000000025e+01 5.188069305745754973e+05
1.004560000000000031e+01 5.237871943508156110e+05
1.008150000000000013e+01 5.292996375665878877e+05
1.011739999999999995e+01 5.366532603586023906e+05
1.015329999999999977e+01 5.441265078937304206e+05
1.018909999999999982e+01 5.508715221134114545e+05
1.022499999999999964e+01 5.589135893119151006e+05
1.026089999999999947e+01 5.684653293406028533e+05
1.029679999999999929e+01 5.779276357358236564e+05
1.033270000000000088e+01 5.859709996488811448e+05
1.036849999999999916e+01 5.921188755589048378e+05
1.040440000000000076e+01 5.976234998464842793e+05
1.044030000000000058e+01 6.053557540672168834e+05
1.047620000000000040e+01 6.143215902495429618e+05
1.051200000000000045e+01 6.209844395700133173e+05
1.054790000000000028e+01 6.268486812964224955e+05
1.058380000000000010e+01 6.352225383967011003e+05
1.061969999999999992e+01 6.452620126951455604e+05
1.065549999999999997e+01 6.554803672724275384e+05
1.069139999999999979e+01 6.650939968103729188e+05
1.072729999999999961e+01 6.729946242471060250e+05
1.076319999999999943e+01 6.774190792580946581e+05
1.079909999999999926e+01 6.757271178113832138e+05
1.083489999999999931e+01 6.686968866936347913e+05
1.087079999999999913e+01 6.578541684348784620e+05
1.090670000000000073e+01 6.416629987378473161e+05
1.094260000000000055e+01 6.229354464663622202e+05
1.097840000000000060e+01 6.081069081498347223e+05
1.101430000000000042e+01 6.006152931562267477e+05
1.105020000000000024e+01 6.023235762837568764e+05
1.108610000000000007e+01 6.122311146469513187e+05
1.112190000000000012e+01 6.245985000339825638e+05
1.115779999999999994e+01 6.331849589264588431e+05
1.119369999999999976e+01 6.350808996855939040e+05
1.122959999999999958e+01 6.320547654391044052e+05
1.126549999999999940e+01 6.258581914184956113e+05
1.130129999999999946e+01 6.180556973270816961e+05
1.133719999999999928e+01 6.101278515979715157e+05
1.137310000000000088e+01 6.027664138164401520e+05
1.140900000000000070e+01 5.969106926284957444e+05
1.144480000000000075e+01 5.903978342195028672e+05
1.148070000000000057e+01 5.838839713486855617e+05
1.151660000000000039e+01 5.805028401532355929e+05
1.155250000000000021e+01 5.771997347114790464e+05
1.158840000000000003e+01 5.701953896066776942e+05
1.162420000000000009e+01 5.605219395197806880e+05
1.166009999999999991e+01 5.516176708487033611e+05
1.169599999999999973e+01 5.489936196813337738e+05
1.173189999999999955e+01 5.553947365327742882e+05
1.176769999999999960e+01 5.682214784143825527e+05
1.180359999999999943e+01 5.822782825430498924e+05
1.183949999999999925e+01 5.943446075719455257e+05
1.187540000000000084e+01 6.051578937074170681e+05
1.191119999999999912e+01 6.163670644601463573e+05
1.194710000000000072e+01 6.282811658662445843e+05
1.198300000000000054e+01 6.432496930902530439e+05
1.201890000000000036e+01 6.611505570912866388e+05
1.205480000000000018e+01 6.735955342033962952e+05
1.209060000000000024e+01 6.754974020303945290e+05
1.212650000000000006e+01 6.703605525170677574e+05
1.216239999999999988e+01 6.618973003206121502e+05
1.219829999999999970e+01 6.530741886091037886e+05
1.223409999999999975e+01 6.446883792321184883e+05
1.226999999999999957e+01 6.348605964919596445e+05
1.230589999999999939e+01 6.303100825463306392e+05
1.234179999999999922e+01 6.367027501506034750e+05
1.237770000000000081e+01 6.472515069644725882e+05
1.241350000000000087e+01 6.506932090871060500e+05
1.244940000000000069e+01 6.439335685565929161e+05
1.248530000000000051e+01 6.356655713719651103e+05
1.252120000000000033e+01 6.330803161221828777e+05
1.255700000000000038e+01 6.356628585283670109e+05
1.259290000000000020e+01 6.442139418914905982e+05
1.262880000000000003e+01 6.608030187029355438e+05
1.266469999999999985e+01 6.812380537057871697e+05
1.270049999999999990e+01 7.002678155703269877e+05
1.273639999999999972e+01 7.137232054681768641e+05
1.277229999999999954e+01 7.213877157227720600e+05
1.280819999999999936e+01 7.283572959554453846e+05
1.284409999999999918e+01 7.398209573438934749e+05
1.287989999999999924e+01 7.565830889417685103e+05
1.291580000000000084e+01 7.785031015424751677e+05
1.295170000000000066e+01 8.086461390788380522e+05
1.298760000000000048e+01 8.442947461427710950e+05
1.302340000000000053e+01 8.802343339540255256e+05
1.305930000000000035e+01 9.145423492318507051e+05
1.309520000000000017e+01 9.509592597264070064e+05
1.313109999999999999e+01 9.944308607818008168e+05
1.316699999999999982e+01 1.042457730862523778e+06
1.320279999999999987e+01 1.085056111856591888e+06
1.323869999999999969e+01 1.116726462795660365e+06
1.327459999999999951e+01 1.143014766192218754e+06
1.331049999999999933e+01 1.171817668628802290e+06
1.334629999999999939e+01 1.199773031936858781e+06
1.338219999999999921e+01 1.213168640788332326e+06
1.341810000000000080e+01 1.208314389498311793e+06
1.345400000000000063e+01 1.192085857672183542e+06
1.348980000000000068e+01 1.167804942101883003e+06
1.352570000000000050e+01 1.142020361666640732e+06
1.356160000000000032e+01 1.120261346215520520e+06
1.359750000000000014e+01 1.098206319255860057e+06
1.363339999999999996e+01 1.077485141773521900e+06
1.366920000000000002e+01 1.064179442909095436e+06
1.370509999999999984e+01 1.053031328263761709e+06
1.374099999999999966e+01 1.036468981621069135e+06
1.377689999999999948e+01 1.016422601514769252e+06
1.381269999999999953e+01 1.004874768089461606e+06
1.384859999999999935e+01 1.009145240985601442e+06
1.388449999999999918e+01 1.025469516049033962e+06
1.392040000000000077e+01 1.051643926922133891e+06
1.395630000000000059e+01 1.091404140386642888e+06
1.399210000000000065e+01 1.137541261767620454e+06
1.402800000000000047e+01 1.184445143070229562e+06
1.406390000000000029e+01 1.239994082945150090e+06
1.409980000000000011e+01 1.302037260471629445e+06
1.413560000000000016e+01 1.357933923463920830e+06
1.417149999999999999e+01 1.402040900414310861e+06
1.420739999999999981e+01 1.438184116382820765e+06
1.424329999999999963e+01 1.469376945846499875e+06
1.427909999999999968e+01 1.494700475027774693e+06
