# energy(eV) alpha
0.000000000000000000e+00 0.000000000000000000e+00
8.690000000000000502e-02 2.486596468565651197e+00
1.738999999999999990e-01 9.950127990552859458e+00
2.607999999999999763e-01 2.213543649302066285e+01
3.477999999999999980e-01 3.944815026075981024e+01
4.346999999999999753e-01 6.209470529561097152e+01
5.217000000000000526e-01 8.936106738342729727e+01
6.086000000000000298e-01 1.226343913724319492e+02
6.955000000000000071e-01 1.611002350806925847e+02
7.824999999999999734e-01 2.054707519028952731e+02
8.693999999999999506e-01 2.558929403256493060e+02
9.564000000000000279e-01 3.134945613301650837e+02
1.043299999999999894e+00 3.767205629293121660e+02
1.130300000000000082e+00 4.476480270748963903e+02
1.217200000000000060e+00 5.265939025585581703e+02
1.304100000000000037e+00 6.139820722459513718e+02
1.391100000000000003e+00 7.089751349045133111e+02
1.477999999999999980e+00 8.156073518164798770e+02
1.564999999999999947e+00 9.305498541924507663e+02
1.651899999999999924e+00 1.058225102928483693e+03
1.738899999999999890e+00 1.199506491119959492e+03
1.825800000000000090e+00 1.351689497694657575e+03
1.912700000000000067e+00 1.521884428110114641e+03
1.999700000000000033e+00 1.709475314538864268e+03
2.086599999999999788e+00 1.915047086751300412e+03
2.173599999999999977e+00 2.143361789758331724e+03
2.260499999999999954e+00 2.399223189800244199e+03
2.347399999999999931e+00 2.682031943780426900e+03
2.434400000000000119e+00 2.999284792588757227e+03
2.521300000000000097e+00 3.356542608451010437e+03
2.608299999999999841e+00 3.764656259243547993e+03
2.695199999999999818e+00 4.232304671069206051e+03
2.782200000000000006e+00 4.776114333681871358e+03
2.869099999999999984e+00 5.420135614024115057e+03
2.955999999999999961e+00 6.199863611542453327e+03
3.043000000000000149e+00 7.184857470522596486e+03
3.129900000000000126e+00 8.513070967873023619e+03
3.216899999999999871e+00 1.052902309649144263e+04
3.303799999999999848e+00 1.398044241398112354e+04
3.390800000000000036e+00 1.929371957777158241e+04
3.477700000000000014e+00 2.495835579577994577e+04
3.564599999999999991e+00 3.109889178598671424e+04
3.651600000000000179e+00 3.963601888703621080e+04
3.738500000000000156e+00 4.583843686675763456e+04
3.825499999999999901e+00 4.996923439698062430e+04
3.912399999999999878e+00 5.492328586244886537e+04
3.999400000000000066e+00 6.445790988554213254e+04
4.086299999999999599e+00 8.050212635052716359e+04
4.173199999999999577e+00 1.039327419885350828e+05
4.260200000000000209e+00 1.457491384140395967e+05
4.347100000000000186e+00 2.103682934680678591e+05
4.434099999999999930e+00 2.577024448938673595e+05
4.520999999999999908e+00 3.120070216257618740e+05
4.607999999999999652e+00 3.429819419413521537e+05
4.694899999999999629e+00 3.816009769465480349e+05
4.781799999999999606e+00 4.155500406383487280e+05
4.868800000000000239e+00 4.359428898680994753e+05
4.955700000000000216e+00 4.609634805636966485e+05
5.042699999999999960e+00 4.874759734632779728e+05
5.129599999999999937e+00 4.971759042618843960e+05
5.216599999999999682e+00 4.963079245275806170e+05
5.303499999999999659e+00 4.915850827271474409e+05
5.390399999999999636e+00 5.083947522732294747e+05
5.477400000000000269e+00 5.657129957003091695e+05
5.564300000000000246e+00 6.895753599778536009e+05
5.651299999999999990e+00 7.493934628150243079e+05
5.738199999999999967e+00 7.095054454835203942e+05
5.825099999999999945e+00 6.625144627857682062e+05
5.912099999999999689e+00 6.369597069176009391e+05
5.998999999999999666e+00 6.287524240877379198e+05
6.086000000000000298e+00 6.350546723526034039e+05
6.172900000000000276e+00 6.803251286598336883e+05
6.259900000000000020e+00 6.922811740599813638e+05
6.346799999999999997e+00 6.839538706612436799e+05
6.433699999999999974e+00 6.848582089337287471e+05
6.520699999999999719e+00 7.126928669058014639e+05
6.607599999999999696e+00 7.260489047269581351e+05
6.694600000000000328e+00 7.339758263815728715e+05
6.781500000000000306e+00 7.643506357937225839e+05
6.868500000000000050e+00 8.054226103724587010e+05
6.955400000000000027e+00 8.181871721531028161e+05
7.042300000000000004e+00 8.158700928622094216e+05
7.129299999999999748e+00 8.274050554627346573e+05
7.216199999999999726e+00 8.361321065882639959e+05
7.303200000000000358e+00 8.394417097001190996e+05
7.390100000000000335e+00 8.347878473603919847e+05
7.477100000000000080e+00 8.126822717764051631e+05
7.564000000000000057e+00 7.933377507789784577e+05
7.650900000000000034e+00 7.809774684253499145e+05
7.737899999999999778e+00 7.719318812523323577e+05
7.824799999999999756e+00 7.764112455809436506e+05
7.911800000000000388e+00 7.730054174917557975e+05
7.998700000000000365e+00 7.594817047589186113e+05
8.085699999999999221e+00 7.431859858615869889e+05
8.172599999999999199e+00 7.179917724201825913e+05
8.259499999999999176e+00 7.075287610589700053e+05
8.346500000000000696e+00 6.919497686955764657e+05
8.433400000000000674e+00 6.857210282574532321e+05
8.520400000000000418e+00 6.946470968752657063e+05
8.607300000000000395e+00 7.005858863954396220e+05
8.694300000000000139e+00 7.362618737049815245e+05
8.781200000000000117e+00 8.390745452018452343e+05
8.868100000000000094e+00 8.580331029089407530e+05
8.955099999999999838e+00 8.333462575972380582e+05
9.041999999999999815e+00 8.164096714353124844e+05
9.128999999999999559e+00 8.020877331327517750e+05
9.215899999999999537e+00 7.966551837473474443e+05
9.302899999999999281e+00 8.084826728067497024e+05
9.389799999999999258e+00 8.171800446962428978e+05
9.476699999999999235e+00 8.127275111285767052e+05
9.563700000000000756e+00 8.020937301549528493e+05
9.650600000000000733e+00 8.010165461974313948e+05
9.737600000000000477e+00 8.146878838499566773e+05
9.824500000000000455e+00 8.078555737459600205e+05
9.911400000000000432e+00 8.039209055151703069e+05
9.998400000000000176e+00 7.957712460685382830e+05
1.008530000000000015e+01 7.800088550953635713e+05
1.017229999999999990e+01 7.764887790051214397e+05
1.025919999999999987e+01 7.657635741057102568e+05
1.034619999999999962e+01 7.505909526267882902e+05
1.043309999999999960e+01 7.283867750795716420e+05
1.051999999999999957e+01 7.221425636142940493e+05
1.060699999999999932e+01 7.211960822587676812e+05
1.069389999999999930e+01 7.227555928754482884e+05
1.078090000000000082e+01 7.146616120385457762e+05
1.086780000000000079e+01 7.067459827976617962e+05
1.095480000000000054e+01 7.008138001224066829e+05
1.104170000000000051e+01 6.882867307072068797e+05
1.112860000000000049e+01 6.715095303958083969e+05
1.121560000000000024e+01 6.750996183633832261e+05
1.130250000000000021e+01 6.860604665755056776e+05
1.138949999999999996e+01 7.078966187535019126e+05
1.147639999999999993e+01 7.183271186175901676e+05
1.156339999999999968e+01 7.072634728344037430e+05
1.165029999999999966e+01 6.962202300189399393e+05
1.173719999999999963e+01 6.877628676928143250e+05
1.182419999999999938e+01 6.761259763918010285e+05
1.191109999999999935e+01 6.778349257335497532e+05
1.199810000000000088e+01 6.867544007068009814e+05
1.208500000000000085e+01 6.957008712331422139e+05
1.217200000000000060e+01 6.889971865451488411e+05
1.225890000000000057e+01 6.818066433731731959e+05
1.234580000000000055e+01 6.894199081633700989e+05
1.243280000000000030e+01 7.001162058304258389e+05
1.251970000000000027e+01 7.015695894645354711e+05
1.260670000000000002e+01 7.030469702462492278e+05
1.269359999999999999e+01 7.422817822899009334e+05
1.278059999999999974e+01 7.908374621403587516e+05
1.286749999999999972e+01 8.085448589429853018e+05
1.295439999999999969e+01 7.927779327909824206e+05
1.304139999999999944e+01 7.676223333373937057e+05
1.312829999999999941e+01 7.534385122704812093e+05
1.321529999999999916e+01 7.411529943197784014e+05
1.330219999999999914e+01 7.366368855447495589e+05
1.338920000000000066e+01 7.310236170147601515e+05
1.347610000000000063e+01 7.302851336778784171e+05
1.356300000000000061e+01 7.196074583291367162e+05
1.365000000000000036e+01 7.134037691538548097e+05
1.373690000000000033e+01 6.909875103367228294e+05
1.382390000000000008e+01 6.613695815075134160e+05
1.391080000000000005e+01 6.365281139449020848e+05
1.399770000000000003e+01 6.068592914589034626e+05
1.408469999999999978e+01 5.769664778010062873e+05
1.417159999999999975e+01 5.492527842152721714e+05
1.425859999999999950e+01 5.323765760289181489e+05
1.434549999999999947e+01 5.138473223173741717e+05
1.443249999999999922e+01 5.017263970856938395e+05
1.451939999999999920e+01 5.000095859146089642e+05
1.460629999999999917e+01 5.114581377570687328e+05
1.469330000000000069e+01 5.197547030875543132e+05
1.478020000000000067e+01 5.322795876758494414e+05
1.486720000000000041e+01 5.463397635310275946e+05
1.495410000000000039e+01 5.805562223996511893e+05
1.504110000000000014e+01 6.736879426308666589e+05
1.512800000000000011e+01 8.574020630037263036e+05
1.521490000000000009e+01 8.405642745257357601e+05
1.530189999999999984e+01 7.508750866311988793e+05
1.538879999999999981e+01 6.822146443264648551e+05
1.547579999999999956e+01 6.292453025502311066e+05
1.556269999999999953e+01 6.071393817941166926e+05
1.564969999999999928e+01 6.098939925224282779e+05
1.573659999999999926e+01 6.246118278533553239e+05
1.582349999999999923e+01 6.610083270032261498e+05
1.591050000000000075e+01 7.253832765064125415e+05
1.599740000000000073e+01 8.170379216966049280e+05
1.608439999999999870e+01 8.903055657706954516e+05
1.617129999999999868e+01 9.464541081930550281e+05
1.625829999999999842e+01 9.941875794114051387e+05
1.634519999999999840e+01 1.043426624669897603e+06
1.643209999999999837e+01 1.081064598785317503e+06
1.651910000000000167e+01 1.108470274222910171e+06
1.660600000000000165e+01 1.145761289953664644e+06
1.669300000000000139e+01 1.157229333739372902e+06
1.677990000000000137e+01 1.178743030794451712e+06
1.686690000000000111e+01 1.196538887713189004e+06
1.695380000000000109e+01 1.203171518304608297e+06
1.704070000000000107e+01 1.248679556105389027e+06
1.712770000000000081e+01 1.250770735622842563e+06
1.721460000000000079e+01 1.212924081284855260e+06
1.730160000000000053e+01 1.180124676611950854e+06
1.738850000000000051e+01 1.170823640150163788e+06
1.747540000000000049e+01 1.184773476307745324e+06
1.756240000000000023e+01 1.224518227935634786e+06
1.764930000000000021e+01 1.223458495970816817e+06
1.773629999999999995e+01 1.169217299691698048e+06
1.782319999999999993e+01 1.099084306239371421e+06
1.791019999999999968e+01 1.041083600469618454e+06
1.799709999999999965e+01 1.030848265386334504e+06
1.808399999999999963e+01 1.002753691537393956e+06
1.817099999999999937e+01 9.711777253946687561e+05
1.825789999999999935e+01 9.474826828120400896e+05
1.834489999999999910e+01 9.271360112574760569e+05
1.843179999999999907e+01 9.167611058831226546e+05
1.851879999999999882e+01 8.931937608176632784e+05
1.860569999999999879e+01 8.770346284734616056e+05
1.869259999999999877e+01 8.706475731283151545e+05
1.877959999999999852e+01 8.670466966005970025e+05
1.886649999999999849e+01 8.925524145259448560e+05
1.895349999999999824e+01 9.137588728955672123e+05
1.904040000000000177e+01 9.120634667225279845e+05
1.912740000000000151e+01 8.989987262808495434e+05
1.921430000000000149e+01 8.946109590542818187e+05
1.930120000000000147e+01 8.632333272804312874e+05
1.938820000000000121e+01 8.274627370144508313e+05
1.947510000000000119e+01 7.950727482039302122e+05
1.956210000000000093e+01 7.777836699761201162e+05
1.964900000000000091e+01 7.599070197528045392e+05
1.973600000000000065e+01 7.429619475937369280e+05
1.982290000000000063e+01 7.124516995570842410e+05
1.990980000000000061e+01 6.750119032771101920e+05
1.999680000000000035e+01 6.575968792034945218e+05
2.008370000000000033e+01 6.683660479892209405e+05
2.017070000000000007e+01 6.698026480678649386e+05
2.025760000000000005e+01 6.618161137338186381e+05
2.034459999999999980e+01 6.545508053866273258e+05
2.043149999999999977e+01 6.473986934473735746e+05
2.051839999999999975e+01 6.466979453242988093e+05
2.060539999999999949e+01 6.430658559601622401e+05
2.069229999999999947e+01 6.347394269475106848e+05
2.077929999999999922e+01 6.202921865359556396e+05
2.086619999999999919e+01 5.951593364337999374e+05
2.095319999999999894e+01 5.666684257722729817e+05
2.104009999999999891e+01 5.591699911840814166e+05
2.112699999999999889e+01 5.509049054396749707e+05
2.121399999999999864e+01 5.497327194955718005e+05
2.130089999999999861e+01 5.418934140087009873e+05
2.138789999999999836e+01 5.260283229257491184e+05
2.147479999999999833e+01 5.110169610415243078e+05
2.156169999999999831e+01 4.923712674698092160e+05
2.164870000000000161e+01 4.844248858658428071e+05
2.173560000000000159e+01 4.741826811714693904e+05
2.182260000000000133e+01 4.603650561422638712e+05
2.190950000000000131e+01 4.473229554060650407e+05
2.199650000000000105e+01 4.323348172212895588e+05
2.208340000000000103e+01 4.218389083548644558e+05
2.217030000000000101e+01 4.144401157034786884e+05
2.225730000000000075e+01 4.047564157656961470e+05
2.234420000000000073e+01 3.951509821964988951e+05
2.243120000000000047e+01 3.835793029214509879e+05
2.251810000000000045e+01 3.727702434666916961e+05
2.260510000000000019e+01 3.699101981266213115e+05
2.269200000000000017e+01 3.652030092132143327e+05
2.277890000000000015e+01 3.581146588171824696e+05
2.286589999999999989e+01 3.544451662366201053e+05
2.295279999999999987e+01 3.500388443092931993e+05
2.303979999999999961e+01 3.396885152288855752e+05
2.312669999999999959e+01 3.261303606069688685e+05
2.321369999999999933e+01 3.155832337374919443e+05
2.330059999999999931e+01 3.126123937501390465e+05
2.338749999999999929e+01 3.061472549389965716e+05
2.347449999999999903e+01 3.022161843553817016e+05
2.356139999999999901e+01 3.009868894133873982e+05
2.364839999999999876e+01 2.977447967650433420e+05
2.373529999999999873e+01 2.954880509710879996e+05
2.382229999999999848e+01 2.928169429660058231e+05
2.390919999999999845e+01 2.956127357755134581e+05
2.399609999999999843e+01 2.956737327812635340e+05
2.408310000000000173e+01 2.889752411805891315e+05
2.417000000000000171e+01 2.831000410168656963e+05
2.425700000000000145e+01 2.799547993149590329e+05
2.434390000000000143e+01 2.839136509400107316e+05
2.443090000000000117e+01 2.828509808204212459e+05
2.451780000000000115e+01 2.783667510509238928e+05
2.460470000000000113e+01 2.767055102958264761e+05
2.469170000000000087e+01 2.743776269002349582e+05
2.477860000000000085e+01 2.673393284753006301e+05
2.486560000000000059e+01 2.621737506657392951e+05
2.495250000000000057e+01 2.576926873874955927e+05
2.503950000000000031e+01 2.570556318778861023e+05
2.512640000000000029e+01 2.556413558842302009e+05
2.521330000000000027e+01 2.510543295950059546e+05
2.530030000000000001e+01 2.466177123905803310e+05
2.538719999999999999e+01 2.460389603477239434e+05
2.547419999999999973e+01 2.459077560252524272e+05
2.556109999999999971e+01 2.403950677824509912e+05
2.564799999999999969e+01 2.315914468847062672e+05
2.573499999999999943e+01 2.256352389241964847e+05
2.582189999999999941e+01 2.231804415917049628e+05
2.590889999999999915e+01 2.224845161358826153e+05
2.599579999999999913e+01 2.204295538409035944e+05
2.608279999999999887e+01 2.185235378668347548e+05
2.616969999999999885e+01 2.191855682985077437e+05
2.625659999999999883e+01 2.141873689264146960e+05
2.634359999999999857e+01 2.079552079736715823e+05
2.643049999999999855e+01 2.068883804483980639e+05
2.651749999999999829e+01 2.075196530852953438e+05
2.660439999999999827e+01 2.072428378967320314e+05
2.669140000000000157e+01 2.009721565489568166e+05
2.677830000000000155e+01 1.961800206984360702e+05
2.686520000000000152e+01 1.917214243364068680e+05
2.695220000000000127e+01 1.888285485596481012e+05
2.703910000000000124e+01 1.877224236507997848e+05
2.712610000000000099e+01 1.888468007791674463e+05
2.721300000000000097e+01 1.903888244279782521e+05
2.730000000000000071e+01 1.914281384566306951e+05
2.738690000000000069e+01 1.918857267755107314e+05
2.747380000000000067e+01 1.909981434461053868e+05
2.756080000000000041e+01 1.870077076198711002e+05
2.764770000000000039e+01 1.835040826306779636e+05
2.773470000000000013e+01 1.803574867577659315e+05
2.782160000000000011e+01 1.776798507357457420e+05
2.790859999999999985e+01 1.770750420489344106e+05
2.799549999999999983e+01 1.748675256425767147e+05
2.808239999999999981e+01 1.734428671359164291e+05
2.816939999999999955e+01 1.725871922450410202e+05
2.825629999999999953e+01 1.693697808476605569e+05
2.834329999999999927e+01 1.668578584601153561e+05
2.843019999999999925e+01 1.658930241072076606e+05
2.851719999999999899e+01 1.622484764058774745e+05
2.860409999999999897e+01 1.603386846551710332e+05
2.869099999999999895e+01 1.587642387731806666e+05
2.877799999999999869e+01 1.552520897059728159e+05
2.886489999999999867e+01 1.514563055624791014e+05
2.895189999999999841e+01 1.504527506210579595e+05
2.903879999999999839e+01 1.503811490223293076e+05
2.912569999999999837e+01 1.516032641910499660e+05
2.921270000000000167e+01 1.545231020198314509e+05
2.929960000000000164e+01 1.541048987797170703e+05
2.938660000000000139e+01 1.508969384789600444e+05
2.947350000000000136e+01 1.492677306965189346e+05
2.956050000000000111e+01 1.484609579544382286e+05
2.964740000000000109e+01 1.486335789502627158e+05
2.973430000000000106e+01 1.482621739212026296e+05
2.982130000000000081e+01 1.474172794779196847e+05
2.990820000000000078e+01 1.465694291782135842e+05
2.999520000000000053e+01 1.474529737909182149e+05
3.008210000000000051e+01 1.455019871054079558e+05
3.016910000000000025e+01 1.454277393684183189e+05
3.025600000000000023e+01 1.453018761703920318e+05
3.034290000000000020e+01 1.450384443921298953e+05
3.042989999999999995e+01 1.457403160730152740e+05
3.051679999999999993e+01 1.444040118882795505e+05
3.060379999999999967e+01 1.418824885751889960e+05
3.069069999999999965e+01 1.376813614281766349e+05
3.077769999999999939e+01 1.354420856702163874e+05
3.086459999999999937e+01 1.363840796515407856e+05
3.095149999999999935e+01 1.348574618090458680e+05
3.103849999999999909e+01 1.332091329523840686e+05
3.112539999999999907e+01 1.310420459797996591e+05
3.121239999999999881e+01 1.298689113413810555e+05
3.129929999999999879e+01 1.323207165894178906e+05
3.138629999999999853e+01 1.349498470744029328e+05
3.147319999999999851e+01 1.351775400668462389e+05
3.156009999999999849e+01 1.359733023780195217e+05
3.164709999999999823e+01 1.343875612685781671e+05
3.173400000000000176e+01 1.303489417625956557e+05
3.182100000000000151e+01 1.271301566859973245e+05
3.190790000000000148e+01 1.243139385080136999e+05
3.199490000000000123e+01 1.215657693973978166e+05
3.208180000000000121e+01 1.205884554231770599e+05
3.216870000000000118e+01 1.208453459630046709e+05
3.225569999999999737e+01 1.202142039207072667e+05
3.234259999999999735e+01 1.193867276536306454e+05
3.242960000000000065e+01 1.180683507855968637e+05
3.251650000000000063e+01 1.158263680975190509e+05
3.260349999999999682e+01 1.148650885602892959e+05
3.269039999999999679e+01 1.146150108208021993e+05
3.277729999999999677e+01 1.142743580241557793e+05
3.286430000000000007e+01 1.129352921329945093e+05
3.295120000000000005e+01 1.109239688305563323e+05
3.303820000000000334e+01 1.093171357077655848e+05
3.312510000000000332e+01 1.083308879036332219e+05
3.321200000000000330e+01 1.078532233890267962e+05
3.329899999999999949e+01 1.076868635879387875e+05
3.338589999999999947e+01 1.086802625269790296e+05
3.347290000000000276e+01 1.097274584838023293e+05
3.355980000000000274e+01 1.096985153941234603e+05
3.364679999999999893e+01 1.101737287446980044e+05
3.373369999999999891e+01 1.106273805780072580e+05
3.382059999999999889e+01 1.096142699931056850e+05
3.390760000000000218e+01 1.075337445763830910e+05
3.399450000000000216e+01 1.054468932738967123e+05
3.408149999999999835e+01 1.056811984392196900e+05
3.416839999999999833e+01 1.059842607003294979e+05
3.425540000000000163e+01 1.046656849065055721e+05
3.434230000000000160e+01 1.037692317413601268e+05
3.442920000000000158e+01 1.028417375596571655e+05
3.451619999999999777e+01 9.993975786723429337e+04
3.460309999999999775e+01 9.665206211450519913e+04
