# energy(eV) alpha
0.000000000000000000e+00 0.000000000000000000e+00
4.039999999999999841e-02 6.778045016967526593e-01
8.069999999999999396e-02 2.636458894240798490e+00
1.210999999999999993e-01 6.094346808227188106e+00
1.613999999999999879e-01 1.082863897031649181e+01
2.018000000000000071e-01 1.692124554204788467e+01
2.421000000000000096e-01 2.435590099986674417e+01
2.824999999999999734e-01 3.339881159979309899e+01
3.227999999999999758e-01 4.327831681018987808e+01
3.632000000000000228e-01 5.476573288845320064e+01
4.035000000000000253e-01 6.793567944559961802e+01
4.439000000000000168e-01 8.253288341489201230e+01
4.842000000000000193e-01 9.894614876767920464e+01
5.245999999999999552e-01 1.163922594415467415e+02
5.648999999999999577e-01 1.352157812088754270e+02
6.052999999999999492e-01 1.559916394726535600e+02
6.455999999999999517e-01 1.782037620874951642e+02
6.860000000000000542e-01 2.018998190341177121e+02
7.262999999999999456e-01 2.276560666659148637e+02
7.667000000000000481e-01 2.556305725239389517e+02
8.070000000000000506e-01 2.844427861858174538e+02
8.474000000000000421e-01 3.155361930813415370e+02
8.877000000000000446e-01 3.489328358519626363e+02
9.281000000000000361e-01 3.839934405563413975e+02
9.684000000000000385e-01 4.206305706208399329e+02
1.008799999999999919e+00 4.597972680397755880e+02
1.049099999999999921e+00 5.015043232463947902e+02
1.089499999999999913e+00 5.459292951573825121e+02
1.129799999999999915e+00 5.920838132694470914e+02
1.170199999999999907e+00 6.410758572191493840e+02
1.210499999999999909e+00 6.918328655158253468e+02
1.250899999999999901e+00 7.466297442653811913e+02
1.291199999999999903e+00 8.032936551021618925e+02
1.331599999999999895e+00 8.630755620645421686e+02
1.371899999999999897e+00 9.283098768783054311e+02
1.412300000000000111e+00 9.933081162657879304e+02
1.452599999999999891e+00 1.063986215744876063e+03
1.493000000000000105e+00 1.138167175630906740e+03
1.533300000000000107e+00 1.217107342568467175e+03
1.573700000000000099e+00 1.299784202741260515e+03
1.614000000000000101e+00 1.386083943111618737e+03
1.654400000000000093e+00 1.477667595610643048e+03
1.694700000000000095e+00 1.573069131727052309e+03
1.735100000000000087e+00 1.676958584975768417e+03
1.775400000000000089e+00 1.784961779330607442e+03
1.815800000000000081e+00 1.900379281219008362e+03
1.856100000000000083e+00 2.023264101824295722e+03
1.896500000000000075e+00 2.150832052935074444e+03
1.936800000000000077e+00 2.286164045418286150e+03
1.977200000000000069e+00 2.432992930727490148e+03
2.017500000000000071e+00 2.586407524986700992e+03
2.057900000000000063e+00 2.751889142058420475e+03
2.098199999999999843e+00 2.927787427349804148e+03
2.138599999999999834e+00 3.114602572548911212e+03
2.178900000000000059e+00 3.315912129352189822e+03
2.219300000000000050e+00 3.532364647731696095e+03
2.259599999999999831e+00 3.764001376800258640e+03
2.299999999999999822e+00 4.013352180592602508e+03
2.340300000000000047e+00 4.286190460527580399e+03
2.380700000000000038e+00 4.577618173378040410e+03
2.420999999999999819e+00 4.895446039883103367e+03
2.461399999999999810e+00 5.242547028185836098e+03
2.501700000000000035e+00 5.621075225636824143e+03
2.542100000000000026e+00 6.038128554648821591e+03
2.582399999999999807e+00 6.495977488749042095e+03
2.622799999999999798e+00 7.010199231856524420e+03
2.663100000000000023e+00 7.574914519807056422e+03
2.703500000000000014e+00 8.214469248079403769e+03
2.743799999999999795e+00 8.935676439647722873e+03
2.784199999999999786e+00 9.759326301405308186e+03
2.824500000000000011e+00 1.070724499386183197e+04
2.864900000000000002e+00 1.180930003495574238e+04
2.905199999999999783e+00 1.310717014626152741e+04
2.945600000000000218e+00 1.465714538521244867e+04
2.985899999999999999e+00 1.654891290493377892e+04
3.026299999999999990e+00 1.890905649820345934e+04
3.066600000000000215e+00 2.193181359497733865e+04
3.107000000000000206e+00 2.592947316642755322e+04
3.147299999999999986e+00 3.143016102104464881e+04
3.187699999999999978e+00 3.932886683356641879e+04
3.228000000000000203e+00 5.104699703458763543e+04
3.268400000000000194e+00 6.818029494713307940e+04
3.308699999999999974e+00 8.997892979829561955e+04
3.349099999999999966e+00 1.098256328373359429e+05
3.389400000000000190e+00 1.195692894284230133e+05
3.429800000000000182e+00 1.220357316737923102e+05
3.470099999999999962e+00 1.285316957290639257e+05
3.510499999999999954e+00 1.427943628987989796e+05
3.550800000000000178e+00 1.603958474484917533e+05
3.591200000000000170e+00 1.761928707613916195e+05
3.631499999999999950e+00 1.870986200156687410e+05
3.671899999999999942e+00 1.963386804521341692e+05
3.712200000000000166e+00 2.100401497572739027e+05
3.752600000000000158e+00 2.310195728090309713e+05
3.792899999999999938e+00 2.539151497823985119e+05
3.833299999999999930e+00 2.800652677876717644e+05
3.873600000000000154e+00 3.172340666349670500e+05
3.914000000000000146e+00 3.636505782041085768e+05
3.954299999999999926e+00 4.008700803282000124e+05
3.994699999999999918e+00 4.049876191007609013e+05
4.035000000000000142e+00 3.735621017635877943e+05
4.075400000000000134e+00 3.321470717457121937e+05
4.115700000000000358e+00 3.018374750216759276e+05
4.156100000000000350e+00 2.827564657048514346e+05
4.196399999999999686e+00 2.708975181562665384e+05
4.236799999999999677e+00 2.648498314481751877e+05
4.277099999999999902e+00 2.636202972419959842e+05
4.317499999999999893e+00 2.649194915700645070e+05
4.357800000000000118e+00 2.667140584678442683e+05
4.398200000000000109e+00 2.683468272128327517e+05
4.438500000000000334e+00 2.703049889764239779e+05
4.478900000000000325e+00 2.740733991759359487e+05
4.519199999999999662e+00 2.770031635218392476e+05
4.559599999999999653e+00 2.752036963707764517e+05
4.599899999999999878e+00 2.677773253866534214e+05
4.640299999999999869e+00 2.575216258403351530e+05
4.680600000000000094e+00 2.500221979068211804e+05
4.721000000000000085e+00 2.478485800074200961e+05
4.761300000000000310e+00 2.483023281293805048e+05
4.801700000000000301e+00 2.508713741617324995e+05
4.841999999999999638e+00 2.576684611433993559e+05
4.882399999999999629e+00 2.693182223884714185e+05
4.922699999999999854e+00 2.860129394873735728e+05
4.963099999999999845e+00 3.093750703593073413e+05
5.003400000000000070e+00 3.393782506870314246e+05
5.043800000000000061e+00 3.721015196633876185e+05
5.084100000000000286e+00 4.037565697679338045e+05
5.124500000000000277e+00 4.341308961146791116e+05
5.164799999999999613e+00 4.579047063689623028e+05
5.205199999999999605e+00 4.720502421138954232e+05
5.245499999999999829e+00 4.841934978285651887e+05
5.285899999999999821e+00 4.982374400302291033e+05
5.326200000000000045e+00 5.131618824466280057e+05
5.366600000000000037e+00 5.285365138042550534e+05
5.406900000000000261e+00 5.433443202550689457e+05
5.447300000000000253e+00 5.582535169303015573e+05
5.487599999999999589e+00 5.731723268637856236e+05
5.527999999999999581e+00 5.877545521836932749e+05
5.568299999999999805e+00 5.970432273577176966e+05
5.608699999999999797e+00 5.965156118250478758e+05
5.649000000000000021e+00 5.851110625493812840e+05
5.689400000000000013e+00 5.620055888244704111e+05
5.729700000000000237e+00 5.285061512810694985e+05
5.770100000000000229e+00 4.909654549819912645e+05
5.810399999999999565e+00 4.590677608691755449e+05
5.850799999999999557e+00 4.349294337920224643e+05
5.891099999999999781e+00 4.158983692532492569e+05
5.931499999999999773e+00 4.020049561184756458e+05
5.971799999999999997e+00 3.949266973031748203e+05
6.012199999999999989e+00 3.945737037493821699e+05
6.052500000000000213e+00 3.990630689053781098e+05
6.092900000000000205e+00 4.071147346359677031e+05
6.133300000000000196e+00 4.194896113808566006e+05
6.173600000000000421e+00 4.372076389479442150e+05
6.214000000000000412e+00 4.602675681752221426e+05
6.254299999999999748e+00 4.868725784065079060e+05
6.294699999999999740e+00 5.115856545314008254e+05
6.334999999999999964e+00 5.276029663436452392e+05
6.375399999999999956e+00 5.347639756469948916e+05
6.415700000000000180e+00 5.324957927922280505e+05
6.456100000000000172e+00 5.245306138683408499e+05
6.496400000000000396e+00 5.178359013341665850e+05
6.536800000000000388e+00 5.150968535213803407e+05
6.577099999999999724e+00 5.170672471601176076e+05
6.617499999999999716e+00 5.214480513137215166e+05
6.657799999999999940e+00 5.256710464323209599e+05
6.698199999999999932e+00 5.309957007528276881e+05
6.738500000000000156e+00 5.371412457351266639e+05
6.778900000000000148e+00 5.402400777729402762e+05
6.819200000000000372e+00 5.424788171056100400e+05
6.859600000000000364e+00 5.473630589862312190e+05
6.899899999999999700e+00 5.536963380855944706e+05
6.940299999999999692e+00 5.606763852716292022e+05
6.980599999999999916e+00 5.668123353522153338e+05
7.020999999999999908e+00 5.695864732616650872e+05
7.061300000000000132e+00 5.707320187463967595e+05
7.101700000000000124e+00 5.772844438531651394e+05
7.142000000000000348e+00 5.934263226466975175e+05
7.182400000000000340e+00 6.153133281905786134e+05
7.222699999999999676e+00 6.364860136601886479e+05
7.263099999999999667e+00 6.537486772904846584e+05
7.303399999999999892e+00 6.657427634540516883e+05
7.343799999999999883e+00 6.735340870472639799e+05
7.384100000000000108e+00 6.768374834803930717e+05
7.424500000000000099e+00 6.745888603015588596e+05
7.464800000000000324e+00 6.695895112488778541e+05
7.505200000000000315e+00 6.679072680838727392e+05
7.545499999999999652e+00 6.704379520808231318e+05
7.585899999999999643e+00 6.740092210040627979e+05
7.626199999999999868e+00 6.768399084947598167e+05
7.666599999999999859e+00 6.744460974241185468e+05
7.706900000000000084e+00 6.667357064607930370e+05
7.747300000000000075e+00 6.607252307187733240e+05
7.787600000000000300e+00 6.582064118354818784e+05
7.828000000000000291e+00 6.583075438026143238e+05
7.868299999999999628e+00 6.612115332425815286e+05
7.908699999999999619e+00 6.636110346769586904e+05
7.948999999999999844e+00 6.643136915666211862e+05
7.989399999999999835e+00 6.642445249654968502e+05
8.029700000000000060e+00 6.624528078575321706e+05
8.070100000000000051e+00 6.621400890688183717e+05
8.110400000000000276e+00 6.670644157032555668e+05
8.150800000000000267e+00 6.754617795069331769e+05
8.191100000000000492e+00 6.834742341056801379e+05
8.231500000000000483e+00 6.884581700699564535e+05
8.271800000000000708e+00 6.914223161216374720e+05
8.312200000000000699e+00 6.952973074019384803e+05
8.352499999999999147e+00 7.006161310303008649e+05
8.392899999999999139e+00 7.047660886764375027e+05
8.433199999999999363e+00 7.085231792082851753e+05
8.473599999999999355e+00 7.121108991844370030e+05
8.513899999999999579e+00 7.162576905940844445e+05
8.554299999999999571e+00 7.241445740917618386e+05
8.594599999999999795e+00 7.358541504668607377e+05
8.634999999999999787e+00 7.474605810314841801e+05
8.675300000000000011e+00 7.557817795963283861e+05
8.715700000000000003e+00 7.601223363346408587e+05
8.756000000000000227e+00 7.613311547854701057e+05
8.796400000000000219e+00 7.620722830130689545e+05
8.836700000000000443e+00 7.654003607996794162e+05
8.877100000000000435e+00 7.719398570168176666e+05
8.917400000000000659e+00 7.795765698431913042e+05
8.957800000000000651e+00 7.865997011330522364e+05
8.998100000000000875e+00 7.932164238751753001e+05
9.038500000000000867e+00 7.987271732065716060e+05
9.078799999999999315e+00 8.006712137631225633e+05
9.119199999999999307e+00 7.998343222626959905e+05
9.159499999999999531e+00 7.999871661760394927e+05
9.199899999999999523e+00 8.028473163171946071e+05
9.240199999999999747e+00 8.056111208862375934e+05
9.280599999999999739e+00 8.055530739216752117e+05
9.320899999999999963e+00 8.032825595198496012e+05
9.361299999999999955e+00 8.018049964330486255e+05
9.401600000000000179e+00 8.039644971474859631e+05
9.442000000000000171e+00 8.106742159162850585e+05
9.482300000000000395e+00 8.202397458025846863e+05
9.522700000000000387e+00 8.317553460640555713e+05
9.563000000000000611e+00 8.459184317907243967e+05
9.603400000000000603e+00 8.632509740330005297e+05
9.643700000000000827e+00 8.837847533618938178e+05
9.684100000000000819e+00 9.029463112805408891e+05
9.724399999999999267e+00 9.172552920001674211e+05
9.764799999999999258e+00 9.278622968056279933e+05
9.805099999999999483e+00 9.356090842766757123e+05
9.845499999999999474e+00 9.391299795285720611e+05
9.885799999999999699e+00 9.408060715909843566e+05
9.926199999999999690e+00 9.434792636389840627e+05
9.966499999999999915e+00 9.484245345478082309e+05
1.000689999999999991e+01 9.562037478092692327e+05
1.004720000000000013e+01 9.651456943322257139e+05
1.008760000000000012e+01 9.723157067041536793e+05
1.012790000000000035e+01 9.731042171853261534e+05
1.016830000000000034e+01 9.660599997570989653e+05
1.020860000000000056e+01 9.544121514874370769e+05
1.024900000000000055e+01 9.414314853526836960e+05
1.028930000000000078e+01 9.301597191465117503e+05
1.032970000000000077e+01 9.230662603242818732e+05
1.036999999999999922e+01 9.205746211774884723e+05
1.041039999999999921e+01 9.203250061835685046e+05
1.045069999999999943e+01 9.203542541215978563e+05
1.049109999999999943e+01 9.206088659039427293e+05
1.053139999999999965e+01 9.217037061184543418e+05
1.057179999999999964e+01 9.241101660902585136e+05
1.061209999999999987e+01 9.279243383181748213e+05
1.065249999999999986e+01 9.305479918163570110e+05
1.069280000000000008e+01 9.297945910459462320e+05
1.073320000000000007e+01 9.278487042568571633e+05
1.077350000000000030e+01 9.245711458614707226e+05
1.081390000000000029e+01 9.167889076468768762e+05
1.085420000000000051e+01 9.060609818553737132e+05
1.089460000000000051e+01 8.956455820962697035e+05
1.093490000000000073e+01 8.887947230811307672e+05
1.097530000000000072e+01 8.871292540023574838e+05
1.101559999999999917e+01 8.865812913089230424e+05
1.105599999999999916e+01 8.863279169936461840e+05
1.109629999999999939e+01 8.879677602109188447e+05
1.113669999999999938e+01 8.896746915747069288e+05
1.117699999999999960e+01 8.902107350898380391e+05
1.121739999999999959e+01 8.897872027746024542e+05
1.125769999999999982e+01 8.881308861271552742e+05
1.129809999999999981e+01 8.864836445266936207e+05
1.133840000000000003e+01 8.856226129283832852e+05
1.137880000000000003e+01 8.861401740666268161e+05
1.141910000000000025e+01 8.872113847102228319e+05
1.145950000000000024e+01 8.877085363521109102e+05
1.149980000000000047e+01 8.862007183761455817e+05
1.154020000000000046e+01 8.820685039061665302e+05
1.158050000000000068e+01 8.765776700859975535e+05
1.162090000000000067e+01 8.738519547052239068e+05
1.166119999999999912e+01 8.767925298010141123e+05
1.170159999999999911e+01 8.853916323773730546e+05
1.174189999999999934e+01 8.967107506513601402e+05
1.178229999999999933e+01 9.052708012044030474e+05
1.182259999999999955e+01 9.053597330599210691e+05
1.186299999999999955e+01 8.968644936460780445e+05
1.190329999999999977e+01 8.872234990797558567e+05
1.194369999999999976e+01 8.827539851120652165e+05
1.198399999999999999e+01 8.831540216709491797e+05
1.202439999999999998e+01 8.846225159875218524e+05
1.206470000000000020e+01 8.854040999007254140e+05
1.210510000000000019e+01 8.894997222969903378e+05
1.214550000000000018e+01 8.989487275521279080e+05
1.218580000000000041e+01 9.106033159224783303e+05
1.222620000000000040e+01 9.199487783735038247e+05
1.226650000000000063e+01 9.244634157340124948e+05
1.230690000000000062e+01 9.249028891564192018e+05
1.234720000000000084e+01 9.221678616056978935e+05
1.238760000000000083e+01 9.154649031526100589e+05
1.242789999999999928e+01 9.061680106996780960e+05
1.246829999999999927e+01 8.976634612956211204e+05
1.250859999999999950e+01 8.922217038108968409e+05
1.254899999999999949e+01 8.897621629052659264e+05
1.258929999999999971e+01 8.887522397445602110e+05
1.262969999999999970e+01 8.893258191554950317e+05
1.266999999999999993e+01 8.933771433267631801e+05
1.271039999999999992e+01 9.012661188635460567e+05
1.275070000000000014e+01 9.112551103648017161e+05
1.279110000000000014e+01 9.226519624904659577e+05
1.283140000000000036e+01 9.323462952797153266e+05
1.287180000000000035e+01 9.362871034051695606e+05
1.291210000000000058e+01 9.382267965033127693e+05
1.295250000000000057e+01 9.452551983107029228e+05
1.299280000000000079e+01 9.555394600892225280e+05
1.303320000000000078e+01 9.638808114675272955e+05
1.307349999999999923e+01 9.716201762158076745e+05
1.311389999999999922e+01 9.793778355098435422e+05
1.315419999999999945e+01 9.837790437024846906e+05
1.319459999999999944e+01 9.832129118558601476e+05
1.323489999999999966e+01 9.747823091266351985e+05
1.327529999999999966e+01 9.592751427191054681e+05
1.331559999999999988e+01 9.441296812290957896e+05
1.335599999999999987e+01 9.354450213825179962e+05
1.339630000000000010e+01 9.336859669140176848e+05
1.343670000000000009e+01 9.335173136294487631e+05
1.347700000000000031e+01 9.290001782766756369e+05
1.351740000000000030e+01 9.215958997490333859e+05
1.355770000000000053e+01 9.141864649143751012e+05
1.359810000000000052e+01 9.072323719656957546e+05
1.363840000000000074e+01 9.013274234165833332e+05
1.367880000000000074e+01 8.983673136912820628e+05
1.371909999999999918e+01 8.983881644561717985e+05
1.375949999999999918e+01 9.040132788213222520e+05
1.379979999999999940e+01 9.207994236910650507e+05
1.384019999999999939e+01 9.468565173984925495e+05
1.388049999999999962e+01 9.736693509140572278e+05
1.392089999999999961e+01 9.972769812499494292e+05
1.396119999999999983e+01 1.017356416214646306e+06
1.400159999999999982e+01 1.033470801244340255e+06
1.404190000000000005e+01 1.048315620399741689e+06
1.408230000000000004e+01 1.065565998683747137e+06
1.412260000000000026e+01 1.087345205922454596e+06
1.416300000000000026e+01 1.112696888033650117e+06
1.420330000000000048e+01 1.135757442034016829e+06
1.424370000000000047e+01 1.151946046922414331e+06
1.428400000000000070e+01 1.161589762868061429e+06
1.432440000000000069e+01 1.164285335547160823e+06
1.436469999999999914e+01 1.158754725743797142e+06
1.440509999999999913e+01 1.149987850422110409e+06
1.444539999999999935e+01 1.143660901739938185e+06
1.448579999999999934e+01 1.138620775334358448e+06
1.452609999999999957e+01 1.129207108989708824e+06
1.456649999999999956e+01 1.116762244886703091e+06
1.460679999999999978e+01 1.106818182168255560e+06
1.464719999999999978e+01 1.103167623893636046e+06
1.468750000000000000e+01 1.104920009526918409e+06
1.472789999999999999e+01 1.108528579623745754e+06
1.476820000000000022e+01 1.112751877752460307e+06
1.480860000000000021e+01 1.114228878959979396e+06
1.484890000000000043e+01 1.108175284526015399e+06
1.488930000000000042e+01 1.097758414434533566e+06
1.492960000000000065e+01 1.089544706452243496e+06
1.497000000000000064e+01 1.083135191165152704e+06
1.501030000000000086e+01 1.075325560505410656e+06
1.505070000000000086e+01 1.065444739633385092e+06
1.509099999999999930e+01 1.057825302913754946e+06
1.513139999999999930e+01 1.058587750451673754e+06
1.517169999999999952e+01 1.067832767911749892e+06
1.521209999999999951e+01 1.079778877882767934e+06
1.525239999999999974e+01 1.091330398355928482e+06
1.529279999999999973e+01 1.098668326472987887e+06
1.533309999999999995e+01 1.098777009910942521e+06
1.537349999999999994e+01 1.092674067202333361e+06
1.541380000000000017e+01 1.081787783544463338e+06
1.545420000000000016e+01 1.071434586415861966e+06
1.549450000000000038e+01 1.064131067866123980e+06
1.553490000000000038e+01 1.059616291167707881e+06
1.557520000000000060e+01 1.059447130475668469e+06
1.561560000000000059e+01 1.064487172558900202e+06
1.565590000000000082e+01 1.071691075881323777e+06
1.569630000000000081e+01 1.079070824642644031e+06
1.573659999999999926e+01 1.086993134165202035e+06
1.577699999999999925e+01 1.094932601241751108e+06
1.581729999999999947e+01 1.100007676740648225e+06
1.585769999999999946e+01 1.104146666006231448e+06
1.589799999999999969e+01 1.112612653731548926e+06
1.593839999999999968e+01 1.125384435326992301e+06
1.597869999999999990e+01 1.139151638361242134e+06
1.601910000000000167e+01 1.152612710435679648e+06
1.605940000000000012e+01 1.165878760988328839e+06
