# energy(eV) alpha
0.000000000000000000e+00 0.000000000000000000e+00
3.549999999999999684e-02 9.073190111875361197e+01
7.109999999999999654e-02 3.739414279087307591e+02
1.066000000000000003e-01 8.831672248493086954e+02
1.421000000000000041e-01 1.684730490918378564e+03
1.776000000000000079e-01 2.894716079129476384e+03
2.132000000000000006e-01 4.714339833287306647e+03
2.487000000000000044e-01 7.484229207643616974e+03
2.842000000000000082e-01 1.180375915560445537e+04
3.196999999999999842e-01 1.866585858718609597e+04
3.553000000000000047e-01 2.941143642160731179e+04
3.907999999999999807e-01 4.437090115477320069e+04
4.263000000000000123e-01 5.901626214803029870e+04
4.618999999999999773e-01 6.423840882698854693e+04
4.974000000000000088e-01 5.801027477164836455e+04
5.329000000000000403e-01 4.728804705081027350e+04
5.684000000000000163e-01 3.796276786320446263e+04
6.039999999999999813e-01 3.166255584799675489e+04
6.394999999999999574e-01 2.804533222583127281e+04
6.750000000000000444e-01 2.655326592241019171e+04
7.105000000000000204e-01 2.687441571069205020e+04
7.460999999999999854e-01 2.901872279221598001e+04
7.815999999999999615e-01 3.333017211419809610e+04
8.171000000000000485e-01 4.054328325806876092e+04
8.527000000000000135e-01 5.167695711830260552e+04
8.881999999999999895e-01 6.756383426341210725e+04
9.236999999999999655e-01 8.793521588780722232e+04
9.592000000000000526e-01 1.083410601848835504e+05
9.948000000000000176e-01 1.196940204305369261e+05
1.030299999999999994e+00 1.187611974882861250e+05
1.065800000000000081e+00 1.127654029358285916e+05
1.101299999999999946e+00 1.114971335468459874e+05
1.136900000000000022e+00 1.190199555689424305e+05
1.172400000000000109e+00 1.315090704944599711e+05
1.207899999999999974e+00 1.434381303496651526e+05
1.243400000000000061e+00 1.562178940754201321e+05
1.278999999999999915e+00 1.679112181572363770e+05
1.314500000000000002e+00 1.696730925069542718e+05
1.350000000000000089e+00 1.646367329232227348e+05
1.385599999999999943e+00 1.648760295454204897e+05
1.421100000000000030e+00 1.787919421048878867e+05
1.456599999999999895e+00 2.075930639633738319e+05
1.492099999999999982e+00 2.412540543249271577e+05
1.527700000000000058e+00 2.645959931995775551e+05
1.563199999999999923e+00 2.753827415036585298e+05
1.598700000000000010e+00 2.789344023296560626e+05
1.634200000000000097e+00 2.825283075836154167e+05
1.669799999999999951e+00 2.968566232758320984e+05
1.705300000000000038e+00 3.248056527294254047e+05
1.740799999999999903e+00 3.555708952067965292e+05
1.776399999999999979e+00 3.745988032736454043e+05
1.811900000000000066e+00 3.826879690497932024e+05
1.847399999999999931e+00 3.961304777889178367e+05
1.882900000000000018e+00 4.311778058456425788e+05
1.918500000000000094e+00 4.869269443794516264e+05
1.953999999999999959e+00 5.386109423740144121e+05
1.989500000000000046e+00 5.582086815358180320e+05
2.024999999999999911e+00 5.482115770835394505e+05
2.060599999999999987e+00 5.321620303799298126e+05
2.096099999999999852e+00 5.269796482268663822e+05
2.131600000000000161e+00 5.399191329647528473e+05
2.167199999999999793e+00 5.623841353258088930e+05
2.202700000000000102e+00 5.763143907421106705e+05
2.238199999999999967e+00 5.708092783114723861e+05
2.273699999999999832e+00 5.494830088013871573e+05
2.309299999999999908e+00 5.284804601735437755e+05
2.344800000000000217e+00 5.276340433030860731e+05
2.380300000000000082e+00 5.514942576972597744e+05
2.415799999999999947e+00 5.841700279083522037e+05
2.451400000000000023e+00 6.122544307742966339e+05
2.486899999999999888e+00 6.311800158462309046e+05
2.522400000000000198e+00 6.394652645344096236e+05
2.557999999999999829e+00 6.303961325536268996e+05
2.593500000000000139e+00 6.014691372461826541e+05
2.629000000000000004e+00 5.614951779901995324e+05
2.664499999999999869e+00 5.236855465275514871e+05
2.700099999999999945e+00 5.015777419248343213e+05
2.735599999999999810e+00 5.002238090169465286e+05
2.771100000000000119e+00 5.087543199408287765e+05
2.806599999999999984e+00 5.088107231957194745e+05
2.842200000000000060e+00 4.943891256196124596e+05
2.877699999999999925e+00 4.719001030786450137e+05
2.913199999999999790e+00 4.498658967998657608e+05
2.948700000000000099e+00 4.326484106246241136e+05
2.984300000000000175e+00 4.219975305353324511e+05
3.019800000000000040e+00 4.194571907317624427e+05
3.055299999999999905e+00 4.211217266903056880e+05
3.090899999999999981e+00 4.207733005663045333e+05
3.126399999999999846e+00 4.208108221180387773e+05
3.161900000000000155e+00 4.255892109957638313e+05
3.197400000000000020e+00 4.345427994673438952e+05
3.233000000000000096e+00 4.468470380478017614e+05
3.268499999999999961e+00 4.611727994465505471e+05
3.303999999999999826e+00 4.725846149016369600e+05
3.339500000000000135e+00 4.781787901908683125e+05
3.375100000000000211e+00 4.832465889888005331e+05
3.410600000000000076e+00 4.955144896949697868e+05
3.446099999999999941e+00 5.143336394870982040e+05
3.481700000000000017e+00 5.290946563054273138e+05
3.517199999999999882e+00 5.294150276773233199e+05
3.552700000000000191e+00 5.158817747385693947e+05
3.588200000000000056e+00 4.992117939150995808e+05
3.623800000000000132e+00 4.896295222481535748e+05
3.659299999999999997e+00 4.889294744937153300e+05
3.694799999999999862e+00 4.935693976765667903e+05
3.730300000000000171e+00 4.985498763020352344e+05
3.765899999999999803e+00 4.977108598070408334e+05
3.801400000000000112e+00 4.880853342228699476e+05
3.836899999999999977e+00 4.705908509932230227e+05
3.872500000000000053e+00 4.487435408127980190e+05
3.907999999999999918e+00 4.257188218846777454e+05
3.943499999999999783e+00 4.040448994525386370e+05
3.979000000000000092e+00 3.869956593986129737e+05
4.014599999999999724e+00 3.740518232694838662e+05
4.050099999999999589e+00 3.605559299271597993e+05
4.085600000000000342e+00 3.475660879129613750e+05
4.121100000000000207e+00 3.392280596532062045e+05
4.156699999999999839e+00 3.320583224079692736e+05
4.192199999999999704e+00 3.206732390558433835e+05
4.227699999999999569e+00 3.045016713928335230e+05
4.263300000000000090e+00 2.881722039659963339e+05
4.298799999999999955e+00 2.787751294642503490e+05
4.334299999999999820e+00 2.795219236516166711e+05
4.369799999999999685e+00 2.879788318554292200e+05
4.405400000000000205e+00 2.988001166023481637e+05
4.440900000000000070e+00 3.062296828821664094e+05
4.476399999999999935e+00 3.079127999418381951e+05
4.511899999999999800e+00 3.043900837152678287e+05
4.547500000000000320e+00 2.973862828098211903e+05
4.583000000000000185e+00 2.905093267847149982e+05
4.618500000000000050e+00 2.859387860029369476e+05
4.654099999999999682e+00 2.855583296129074297e+05
4.689600000000000435e+00 2.931585445229163161e+05
4.725100000000000300e+00 3.094147547369893873e+05
4.760600000000000165e+00 3.288552726312745945e+05
4.796199999999999797e+00 3.405750003803680884e+05
4.831699999999999662e+00 3.377686232325217570e+05
4.867200000000000415e+00 3.267571459927457036e+05
4.902700000000000280e+00 3.176402595059426967e+05
4.938299999999999912e+00 3.146589008404728957e+05
4.973799999999999777e+00 3.165763468831811915e+05
5.009299999999999642e+00 3.235739770405520685e+05
5.044800000000000395e+00 3.360506135597051471e+05
5.080400000000000027e+00 3.514421944217268028e+05
5.115899999999999892e+00 3.663852995333340368e+05
5.151399999999999757e+00 3.794490891353806946e+05
5.187000000000000277e+00 3.904922954035624862e+05
5.222500000000000142e+00 3.978008057258243789e+05
5.258000000000000007e+00 3.983057871854656260e+05
5.293499999999999872e+00 3.904658029988480266e+05
5.329100000000000392e+00 3.786193548505865620e+05
5.364600000000000257e+00 3.680196476665001246e+05
5.400100000000000122e+00 3.593904190697667655e+05
5.435599999999999987e+00 3.523600183356937487e+05
5.471199999999999619e+00 3.468144336634557694e+05
5.506700000000000372e+00 3.414393988585069310e+05
5.542200000000000237e+00 3.334833426548824064e+05
5.577799999999999869e+00 3.204759979167870479e+05
5.613299999999999734e+00 3.053101533462349907e+05
5.648799999999999599e+00 2.934949745417325175e+05
5.684300000000000352e+00 2.887046210216775071e+05
5.719899999999999984e+00 2.927793131962341140e+05
5.755399999999999849e+00 3.046213270998544758e+05
5.790899999999999714e+00 3.204089130028364598e+05
5.826399999999999579e+00 3.369369460659833858e+05
5.862000000000000099e+00 3.545165245329205645e+05
5.897499999999999964e+00 3.769021562056296389e+05
5.932999999999999829e+00 4.076795493460447178e+05
5.968600000000000350e+00 4.474371944399949280e+05
6.004100000000000215e+00 4.909600547289390233e+05
6.039600000000000080e+00 5.346266504120917525e+05
6.075099999999999945e+00 5.802155813514927868e+05
6.110699999999999577e+00 6.261145681727877818e+05
6.146200000000000330e+00 6.694709065799236996e+05
6.181700000000000195e+00 7.170253353291208623e+05
6.217200000000000060e+00 7.802285764082617825e+05
6.252799999999999692e+00 8.579341390767419944e+05
6.288299999999999557e+00 9.356538405522872927e+05
6.323800000000000310e+00 1.001743668934105430e+06
6.359399999999999942e+00 1.059798224564268719e+06
6.394899999999999807e+00 1.119325065999140032e+06
6.430399999999999672e+00 1.175855303168321960e+06
6.465900000000000425e+00 1.212187776858244790e+06
6.501500000000000057e+00 1.224430550416683080e+06
6.536999999999999922e+00 1.225598415281743743e+06
6.572499999999999787e+00 1.227206438292453531e+06
6.607999999999999652e+00 1.229182614344032714e+06
6.643600000000000172e+00 1.222342105922725983e+06
6.679100000000000037e+00 1.200659009355700575e+06
6.714599999999999902e+00 1.162550742555661360e+06
6.750099999999999767e+00 1.108267643674767809e+06
6.785700000000000287e+00 1.045729287504588603e+06
6.821200000000000152e+00 9.859203609092781553e+05
6.856700000000000017e+00 9.359956853409418836e+05
6.892299999999999649e+00 9.027468373709945008e+05
6.927800000000000402e+00 8.939145767978940858e+05
6.963300000000000267e+00 9.088923229440411087e+05
6.998800000000000132e+00 9.344755169439174933e+05
7.034399999999999764e+00 9.551990917773230467e+05
7.069899999999999629e+00 9.643427521906772163e+05
7.105400000000000382e+00 9.614742314681606367e+05
7.140900000000000247e+00 9.479703066912909271e+05
7.176499999999999879e+00 9.279125884761194466e+05
7.211999999999999744e+00 9.112746733656739816e+05
7.247499999999999609e+00 9.048489884882246843e+05
7.283100000000000129e+00 9.035392309010326862e+05
7.318599999999999994e+00 9.014366417173250811e+05
7.354099999999999859e+00 8.963314652648157207e+05
7.389599999999999724e+00 8.893134438707014779e+05
7.425200000000000244e+00 8.828055270226794528e+05
7.460700000000000109e+00 8.783965470479838550e+05
7.496199999999999974e+00 8.749717509591932176e+05
7.531699999999999839e+00 8.672129235767520731e+05
7.567300000000000360e+00 8.575873236935319146e+05
7.602800000000000225e+00 8.567483921796536306e+05
7.638300000000000090e+00 8.699223920473821927e+05
7.673899999999999721e+00 8.924832793448391603e+05
7.709399999999999586e+00 9.158128160658782581e+05
7.744900000000000340e+00 9.317921951628716197e+05
7.780400000000000205e+00 9.381012209673525067e+05
7.815999999999999837e+00 9.349229624819423771e+05
7.851499999999999702e+00 9.290180784468777711e+05
7.886999999999999567e+00 9.308555631900214357e+05
7.922500000000000320e+00 9.420106149478344014e+05
7.958099999999999952e+00 9.576200970480220858e+05
7.993599999999999817e+00 9.811262978992317803e+05
8.029099999999999682e+00 1.020100340050365077e+06
8.064700000000000202e+00 1.072456781329572666e+06
8.100199999999999179e+00 1.125745032887251349e+06
8.135699999999999932e+00 1.166494648567446740e+06
8.171200000000000685e+00 1.181576689801642671e+06
8.206799999999999429e+00 1.163451998505772091e+06
8.242300000000000182e+00 1.125694211899373913e+06
8.277799999999999159e+00 1.092961182094160235e+06
8.313299999999999912e+00 1.076832671825242462e+06
8.348900000000000432e+00 1.075072092675572960e+06
8.384399999999999409e+00 1.081795323585866485e+06
8.419900000000000162e+00 1.090661191367138410e+06
8.455500000000000682e+00 1.097856507542458596e+06
8.490999999999999659e+00 1.105770713711196557e+06
8.526500000000000412e+00 1.117620770790734561e+06
8.561999999999999389e+00 1.132426124128815020e+06
8.597599999999999909e+00 1.148594986049318453e+06
8.633100000000000662e+00 1.170605636683583492e+06
8.668599999999999639e+00 1.197387085744552314e+06
8.704100000000000392e+00 1.215055589998339303e+06
8.739699999999999136e+00 1.220151151821935782e+06
8.775199999999999889e+00 1.223646710242406931e+06
8.810700000000000642e+00 1.233633685892867390e+06
8.846199999999999619e+00 1.247502775616905885e+06
8.881800000000000139e+00 1.256960408835702576e+06
8.917299999999999116e+00 1.259956052824918646e+06
8.952799999999999869e+00 1.261440427404761780e+06
8.988400000000000389e+00 1.269351824386955937e+06
9.023899999999999366e+00 1.283858685548094800e+06
9.059400000000000119e+00 1.293043237609742675e+06
9.094900000000000873e+00 1.291050343386591412e+06
9.130499999999999616e+00 1.286633971930139698e+06
9.166000000000000369e+00 1.288664850207289215e+06
9.201499999999999346e+00 1.295167113638396142e+06
9.237000000000000099e+00 1.300785126339034643e+06
9.272600000000000620e+00 1.305142792035525432e+06
9.308099999999999596e+00 1.311830801810281118e+06
9.343600000000000350e+00 1.322718966952663613e+06
9.379200000000000870e+00 1.336345988123883493e+06
9.414699999999999847e+00 1.349937219904588070e+06
9.450200000000000600e+00 1.355070569629012141e+06
9.485699999999999577e+00 1.340758831312582130e+06
9.521300000000000097e+00 1.311143015727930935e+06
9.556800000000000850e+00 1.282791842603361933e+06
9.592299999999999827e+00 1.263185457409512484e+06
9.627800000000000580e+00 1.247958901680920273e+06
9.663399999999999324e+00 1.237113007809794275e+06
9.698900000000000077e+00 1.231530801700811367e+06
9.734400000000000830e+00 1.224369182735465234e+06
9.769999999999999574e+00 1.208297058109866455e+06
9.805500000000000327e+00 1.181420683537484379e+06
9.840999999999999304e+00 1.151633303425712977e+06
9.876500000000000057e+00 1.129042552433142206e+06
9.912100000000000577e+00 1.115336023755853064e+06
9.947599999999999554e+00 1.104035861355400179e+06
9.983100000000000307e+00 1.087233189034650102e+06
1.001859999999999928e+01 1.065210188675158890e+06
1.005419999999999980e+01 1.043968243716219557e+06
1.008970000000000056e+01 1.028406051927564549e+06
1.012519999999999953e+01 1.020779413735636161e+06
1.016080000000000005e+01 1.019140727984052501e+06
1.019630000000000081e+01 1.016932285712210578e+06
1.023179999999999978e+01 1.013067344612699002e+06
1.026730000000000054e+01 1.014513479458651040e+06
1.030289999999999928e+01 1.024510289761349093e+06
1.033840000000000003e+01 1.040873789692925056e+06
1.037390000000000079e+01 1.059677827581241261e+06
1.040939999999999976e+01 1.073896638007479953e+06
1.044500000000000028e+01 1.079344883759657852e+06
1.048049999999999926e+01 1.076686286675089039e+06
1.051600000000000001e+01 1.069371635737668723e+06
1.055160000000000053e+01 1.062484269639655715e+06
1.058709999999999951e+01 1.057981417389371665e+06
1.062260000000000026e+01 1.052435743038788904e+06
1.065809999999999924e+01 1.040876925872496213e+06
1.069369999999999976e+01 1.020622124586415128e+06
1.072920000000000051e+01 9.952057573921459261e+05
1.076469999999999949e+01 9.715639919764774386e+05
1.080020000000000024e+01 9.544703613058704650e+05
1.083580000000000076e+01 9.455707325811593328e+05
1.087129999999999974e+01 9.451266154573099921e+05
1.090680000000000049e+01 9.522404472400482045e+05
1.094229999999999947e+01 9.611430841064597480e+05
1.097789999999999999e+01 9.640022104640988400e+05
1.101340000000000074e+01 9.649263133575740503e+05
1.104889999999999972e+01 9.714289746173544554e+05
1.108450000000000024e+01 9.815662203415447148e+05
1.111999999999999922e+01 9.937408491208000341e+05
1.115549999999999997e+01 1.008293940256990609e+06
1.119100000000000072e+01 1.022676579376015696e+06
1.122659999999999947e+01 1.033645564089886961e+06
1.126210000000000022e+01 1.035760473580688937e+06
1.129759999999999920e+01 1.024763348369724117e+06
1.133309999999999995e+01 1.005688685420884052e+06
1.136870000000000047e+01 9.824598324660154758e+05
1.140419999999999945e+01 9.511928791176467203e+05
1.143970000000000020e+01 9.160078958957837895e+05
1.147530000000000072e+01 8.884752713816182222e+05
1.151079999999999970e+01 8.722509458034398267e+05
1.154630000000000045e+01 8.651273990404113429e+05
1.158179999999999943e+01 8.632154031359537039e+05
1.161739999999999995e+01 8.622080675920133945e+05
1.165290000000000070e+01 8.621878774175436702e+05
1.168839999999999968e+01 8.648321837551534409e+05
1.172390000000000043e+01 8.669130200019566109e+05
1.175949999999999918e+01 8.725107962318469072e+05
1.179499999999999993e+01 8.864334653296364704e+05
1.183050000000000068e+01 9.026334675028155325e+05
1.186609999999999943e+01 9.137245282085500658e+05
1.190160000000000018e+01 9.220070204804848181e+05
1.193709999999999916e+01 9.357733420135942288e+05
1.197259999999999991e+01 9.547554841806872282e+05
1.200820000000000043e+01 9.699500550392399309e+05
1.204369999999999941e+01 9.762605081818141043e+05
1.207920000000000016e+01 9.783110241358397761e+05
1.211469999999999914e+01 9.811827571366244229e+05
1.215029999999999966e+01 9.835288604896437610e+05
1.218580000000000041e+01 9.841658090611177031e+05
1.222129999999999939e+01 9.834230271482844837e+05
1.225689999999999991e+01 9.821374879958205856e+05
1.229240000000000066e+01 9.806564411629328970e+05
1.232789999999999964e+01 9.779245613894857233e+05
1.236340000000000039e+01 9.729955936630228534e+05
1.239899999999999913e+01 9.631006189954740694e+05
1.243449999999999989e+01 9.455969304500141880e+05
1.247000000000000064e+01 9.257143567519255448e+05
1.250549999999999962e+01 9.134695052639696514e+05
1.254110000000000014e+01 9.112243063987122150e+05
1.257659999999999911e+01 9.096845993009840604e+05
1.261209999999999987e+01 9.041066289949786151e+05
1.264760000000000062e+01 9.004827885258708848e+05
1.268319999999999936e+01 9.013468944084499963e+05
1.271870000000000012e+01 9.011649734307030449e+05
1.275420000000000087e+01 9.003010757470630342e+05
1.278979999999999961e+01 9.047764856562250061e+05
1.282530000000000037e+01 9.099903722098852741e+05
1.286079999999999934e+01 9.063273054936830886e+05
1.289630000000000010e+01 8.936252565786411287e+05
1.293190000000000062e+01 8.768753924740141956e+05
1.296739999999999959e+01 8.579888963469243608e+05
1.300290000000000035e+01 8.403809274962599156e+05
1.303839999999999932e+01 8.314989750685787294e+05
1.307399999999999984e+01 8.358399955263339216e+05
1.310950000000000060e+01 8.493673528986455640e+05
1.314499999999999957e+01 8.616919029795305105e+05
1.318060000000000009e+01 8.638565118808007101e+05
1.321610000000000085e+01 8.539217678480980685e+05
1.325159999999999982e+01 8.332214361825177912e+05
1.328710000000000058e+01 8.045797836625851924e+05
1.332269999999999932e+01 7.752371162703239825e+05
1.335820000000000007e+01 7.506808887746116379e+05
1.339370000000000083e+01 7.312298870132964803e+05
1.342919999999999980e+01 7.186328077648268081e+05
1.346480000000000032e+01 7.151175400380796054e+05
1.350029999999999930e+01 7.192910737079625251e+05
1.353580000000000005e+01 7.254442896880942862e+05
1.357140000000000057e+01 7.258701374108083546e+05
1.360689999999999955e+01 7.187088749736901373e+05
1.364240000000000030e+01 7.049641697684188839e+05
1.367789999999999928e+01 6.834439686681856401e+05
1.371349999999999980e+01 6.578800464249156648e+05
1.374900000000000055e+01 6.350884249353810446e+05
1.378449999999999953e+01 6.169558394656996243e+05
1.382000000000000028e+01 6.038666619238315616e+05
1.385560000000000080e+01 5.968950306514224503e+05
1.389109999999999978e+01 5.964391984022571705e+05
1.392660000000000053e+01 6.006385078614193480e+05
1.396219999999999928e+01 6.057484100099232746e+05
1.399770000000000003e+01 6.109965285951971309e+05
1.403320000000000078e+01 6.168394424775369698e+05
1.406869999999999976e+01 6.225825638414355926e+05
1.410430000000000028e+01 6.282447717137198197e+05
1.413979999999999926e+01 6.325696059961924329e+05
