# energy(eV) alpha
0.000000000000000000e+00 0.000000000000000000e+00
4.599999999999999922e-02 5.121255431498066280e-01
9.189999999999999558e-02 2.301921098730935533e+00
1.378999999999999948e-01 4.988928537334929025e+00
1.837999999999999912e-01 9.206018345328546459e+00
2.298000000000000043e-01 1.470526177892622499e+01
2.757000000000000006e-01 2.070698614873082732e+01
3.216999999999999860e-01 2.863072518646346865e+01
3.677000000000000268e-01 3.680635483885819070e+01
4.136000000000000232e-01 4.713895437119900578e+01
4.596000000000000085e-01 5.747479627072721797e+01
5.054999999999999494e-01 7.021541071895426001e+01
5.514999999999999902e-01 8.423506257196397939e+01
5.974000000000000421e-01 9.950146894221204263e+01
6.433999999999999719e-01 1.160434699569030101e+02
6.894000000000000128e-01 1.338424457662770521e+02
7.352999999999999536e-01 1.528747695576507795e+02
7.812999999999999945e-01 1.731771012963014300e+02
8.272000000000000464e-01 1.946998241654548849e+02
8.731999999999999762e-01 2.174869101016504374e+02
9.191000000000000281e-01 2.414856944262986076e+02
9.650999999999999579e-01 2.694063494719625851e+02
1.011100000000000110e+00 2.960085533882308368e+02
1.056999999999999940e+00 3.267194505578308963e+02
1.102999999999999980e+00 3.558841730852525984e+02
1.148900000000000032e+00 3.893867798510363514e+02
1.194900000000000073e+00 4.243684015310424229e+02
1.240799999999999903e+00 4.607514041850075159e+02
1.286799999999999944e+00 5.021434147377333375e+02
1.332699999999999996e+00 5.414956992195111525e+02
1.378700000000000037e+00 5.860882277142452494e+02
1.424700000000000077e+00 6.284156063702932897e+02
1.470599999999999907e+00 6.761233699556386227e+02
1.516599999999999948e+00 7.296355939568932172e+02
1.562500000000000000e+00 7.806736920581686263e+02
1.608500000000000041e+00 8.377562217896110042e+02
1.654400000000000093e+00 8.965852353430325365e+02
1.700399999999999912e+00 9.572753635731534132e+02
1.746399999999999952e+00 1.024488190009639084e+03
1.792300000000000004e+00 1.093637899866359476e+03
1.838300000000000045e+00 1.164824325249057893e+03
1.884200000000000097e+00 1.237902786243627361e+03
1.930199999999999916e+00 1.323383183776507622e+03
1.976099999999999968e+00 1.405841860880105969e+03
2.022100000000000009e+00 1.495886575095758644e+03
2.068099999999999827e+00 1.593780923054438290e+03
2.113999999999999879e+00 1.694086906450680090e+03
2.160000000000000142e+00 1.802706172267008469e+03
2.205900000000000194e+00 1.913832537279537291e+03
2.251900000000000013e+00 2.039616033211832928e+03
2.297800000000000065e+00 2.168246342775398261e+03
2.343799999999999883e+00 2.306070775259630409e+03
2.389800000000000146e+00 2.459554888249017495e+03
2.435700000000000198e+00 2.616305799816565468e+03
2.481700000000000017e+00 2.789527993835329653e+03
2.527600000000000069e+00 2.979468936381546882e+03
2.573599999999999888e+00 3.180138748851642504e+03
2.619499999999999940e+00 3.405123917658288519e+03
2.665500000000000203e+00 3.641514907749301983e+03
2.711500000000000021e+00 3.910385705318625696e+03
2.757400000000000073e+00 4.205441816590016060e+03
2.803399999999999892e+00 4.534647582791911191e+03
2.849299999999999944e+00 4.898543911519151152e+03
2.895300000000000207e+00 5.312864388209771278e+03
2.941199999999999815e+00 5.785739571968354539e+03
2.987200000000000077e+00 6.333775367921169163e+03
3.033199999999999896e+00 6.965810268400497080e+03
3.079099999999999948e+00 7.721264811259806265e+03
3.125100000000000211e+00 8.618031344426715805e+03
3.170999999999999819e+00 9.719642890859455292e+03
3.217000000000000082e+00 1.109178535133819969e+04
3.262900000000000134e+00 1.284636106174187989e+04
3.308899999999999952e+00 1.516851712497966946e+04
3.354900000000000215e+00 1.833732502934203512e+04
3.400799999999999823e+00 2.287725699445377541e+04
3.446800000000000086e+00 2.968576725562175852e+04
3.492700000000000138e+00 4.047609468585233117e+04
3.538699999999999957e+00 5.817947613429653575e+04
3.584600000000000009e+00 8.547757138534469414e+04
3.630599999999999827e+00 1.156868142016605270e+05
3.676600000000000090e+00 1.347418702816226578e+05
3.722500000000000142e+00 1.453739145285826235e+05
3.768499999999999961e+00 1.437664939203915710e+05
3.814400000000000013e+00 1.240767589086959633e+05
3.860399999999999832e+00 9.840591857710773183e+04
3.906299999999999883e+00 7.717010474220008473e+04
3.952300000000000146e+00 6.382581339973477589e+04
3.998200000000000198e+00 5.661731001041038689e+04
4.044200000000000017e+00 5.274818547315101750e+04
4.090200000000000280e+00 5.100972534134430316e+04
4.136099999999999888e+00 4.957656016155637917e+04
4.182100000000000151e+00 4.984082783857278991e+04
4.227999999999999758e+00 5.135312485257769731e+04
4.274000000000000021e+00 5.172713510607903299e+04
4.319899999999999629e+00 5.413537626323403674e+04
4.365899999999999892e+00 6.156300680721932440e+04
4.411900000000000155e+00 7.239581851673607889e+04
4.457799999999999763e+00 8.350253365644153382e+04
4.503800000000000026e+00 9.670768249555962393e+04
4.549699999999999633e+00 1.121527215222762170e+05
4.595699999999999896e+00 1.297065209863986383e+05
4.641600000000000392e+00 1.546035809086897061e+05
4.687599999999999767e+00 1.840037151738748653e+05
4.733600000000000030e+00 2.080039188839587441e+05
4.779499999999999638e+00 2.146188810714516731e+05
4.825499999999999901e+00 2.027128858862402558e+05
4.871400000000000396e+00 1.831219857227459142e+05
4.917399999999999771e+00 1.644603245433577104e+05
4.963300000000000267e+00 1.552140794354998798e+05
5.009299999999999642e+00 1.607226759869224625e+05
5.055299999999999905e+00 1.772312270652104344e+05
5.101200000000000401e+00 1.921910181497753074e+05
5.147199999999999775e+00 2.015764079070049047e+05
5.193100000000000271e+00 2.114425834949122509e+05
5.239099999999999646e+00 2.185855527108206006e+05
5.285000000000000142e+00 2.186810138774284860e+05
5.331000000000000405e+00 2.248577308290785877e+05
5.376999999999999780e+00 2.432510376858859381e+05
5.422900000000000276e+00 2.759783632674610708e+05
5.468899999999999650e+00 3.274295334468595684e+05
5.514800000000000146e+00 3.963911402989588678e+05
5.560800000000000409e+00 4.800856848639473901e+05
5.606700000000000017e+00 5.524120299342222279e+05
5.652700000000000280e+00 5.935116331563768908e+05
5.698699999999999655e+00 6.233034598475432722e+05
5.744600000000000151e+00 6.461072451304689748e+05
5.790600000000000414e+00 6.529872065625290852e+05
5.836500000000000021e+00 6.492510652507819468e+05
5.882500000000000284e+00 6.410982180960099213e+05
5.928399999999999892e+00 6.364842409001317574e+05
5.974400000000000155e+00 6.472916960383917904e+05
6.020400000000000418e+00 6.612711797158485278e+05
6.066300000000000026e+00 6.623381095914011821e+05
6.112300000000000288e+00 6.516649942866949132e+05
6.158199999999999896e+00 6.439572914477356244e+05
6.204200000000000159e+00 6.426199513185593532e+05
6.250099999999999767e+00 6.481744049089355394e+05
6.296100000000000030e+00 6.534624645702011185e+05
6.342100000000000293e+00 6.461341014044407057e+05
6.387999999999999901e+00 6.230403019970649621e+05
6.434000000000000163e+00 5.931404836757263402e+05
6.479899999999999771e+00 5.715276333493718412e+05
6.525900000000000034e+00 5.558974756486534607e+05
6.571799999999999642e+00 5.402520760100944899e+05
6.617799999999999905e+00 5.348145011227994692e+05
6.663700000000000401e+00 5.469669880994037958e+05
6.709699999999999775e+00 5.668709123640804319e+05
6.755700000000000038e+00 5.801672335529137636e+05
6.801599999999999646e+00 5.793374118230312597e+05
6.847599999999999909e+00 5.762722427442239132e+05
6.893500000000000405e+00 5.826021373958076583e+05
6.939499999999999780e+00 5.909429903199189575e+05
6.985400000000000276e+00 5.988454189103159588e+05
7.031399999999999650e+00 6.155075456896655960e+05
7.077399999999999913e+00 6.495060150502962060e+05
7.123300000000000409e+00 6.837554795492207631e+05
7.169299999999999784e+00 7.009066533653946826e+05
7.215200000000000280e+00 7.208470053776495624e+05
7.261199999999999655e+00 7.575332250274802791e+05
7.307100000000000151e+00 8.063602534423234174e+05
7.353100000000000414e+00 8.490569683467322029e+05
7.399099999999999788e+00 8.690922570720018120e+05
7.445000000000000284e+00 8.848460970239043236e+05
7.490999999999999659e+00 9.136604991134232841e+05
7.536900000000000155e+00 9.494846282634910895e+05
7.582900000000000418e+00 9.828601900603504619e+05
7.628800000000000026e+00 9.950261763597074896e+05
7.674800000000000288e+00 9.871765328633958707e+05
7.720799999999999663e+00 9.732250428229995305e+05
7.766700000000000159e+00 9.595618875652560964e+05
7.812700000000000422e+00 9.519165232433140045e+05
7.858600000000000030e+00 9.368875434997054981e+05
7.904600000000000293e+00 9.033552601831662469e+05
7.950499999999999901e+00 8.730544086503573926e+05
7.996500000000000163e+00 8.487128516043940326e+05
8.042500000000000426e+00 8.177239603296765126e+05
8.088400000000000034e+00 7.852007467604253907e+05
8.134399999999999409e+00 7.591054807071518153e+05
8.180300000000000793e+00 7.449164990258940961e+05
8.226300000000000168e+00 7.558005338121647947e+05
8.272199999999999775e+00 7.886328540464846883e+05
8.318199999999999150e+00 8.143422613494162215e+05
8.364200000000000301e+00 8.383885427019015187e+05
8.410099999999999909e+00 8.696252248324409593e+05
8.456099999999999284e+00 8.953790326542524854e+05
8.502000000000000668e+00 9.104563220620225184e+05
8.548000000000000043e+00 9.209751730357618071e+05
8.593899999999999650e+00 9.272015823715446750e+05
8.639900000000000801e+00 9.285249180772351101e+05
8.685900000000000176e+00 9.240548992670890875e+05
8.731799999999999784e+00 9.197099855388742872e+05
8.777799999999999159e+00 9.146897922421200201e+05
8.823700000000000543e+00 9.055292019805180607e+05
8.869699999999999918e+00 8.872974833825065289e+05
8.915599999999999525e+00 8.621116451761532808e+05
8.961600000000000676e+00 8.385857558530474780e+05
9.007600000000000051e+00 8.159091706640743650e+05
9.053499999999999659e+00 7.973678069457879756e+05
9.099500000000000810e+00 7.841453910117020132e+05
9.145400000000000418e+00 7.696883008086190093e+05
9.191399999999999793e+00 7.501100755371873965e+05
9.237299999999999400e+00 7.264683632679845905e+05
9.283300000000000551e+00 7.021134902613708982e+05
9.329200000000000159e+00 6.817346728048209334e+05
9.375199999999999534e+00 6.725322510197967058e+05
9.421200000000000685e+00 6.787186586900843540e+05
9.467100000000000293e+00 6.973093082780736731e+05
9.513099999999999667e+00 7.253410492257925216e+05
9.558999999999999275e+00 7.547733828127062880e+05
9.605000000000000426e+00 7.736044112236397341e+05
9.650900000000000034e+00 7.792892857649421785e+05
9.696899999999999409e+00 7.775723786928991321e+05
9.742900000000000560e+00 7.809395452548804460e+05
9.788800000000000168e+00 7.914068464776338078e+05
9.834799999999999542e+00 8.030509352973799687e+05
9.880699999999999150e+00 8.084818608003255213e+05
9.926700000000000301e+00 8.069838560746611329e+05
9.972599999999999909e+00 8.065769917352768825e+05
1.001859999999999928e+01 8.048489276023642160e+05
1.006460000000000043e+01 7.971421447961785598e+05
1.011050000000000004e+01 7.934764533039258095e+05
1.015649999999999942e+01 8.001195086789542111e+05
1.020240000000000080e+01 8.136764565888547804e+05
1.024840000000000018e+01 8.295893170367307030e+05
1.029429999999999978e+01 8.501799904254360590e+05
1.034029999999999916e+01 8.746092666536134202e+05
1.038630000000000031e+01 8.998518930903330911e+05
1.043219999999999992e+01 9.238728021095729200e+05
1.047819999999999929e+01 9.461029175334783504e+05
1.052410000000000068e+01 9.741478983007862698e+05
1.057010000000000005e+01 1.010474042448545573e+06
1.061599999999999966e+01 1.046826611732346704e+06
1.066200000000000081e+01 1.060579406072966754e+06
1.070800000000000018e+01 1.051308594467335381e+06
1.075389999999999979e+01 1.032486269153636647e+06
1.079989999999999917e+01 1.010464982527393266e+06
1.084580000000000055e+01 9.909267761885592481e+05
1.089179999999999993e+01 9.761316690743332729e+05
1.093769999999999953e+01 9.535068113080527401e+05
1.098370000000000068e+01 9.301732123340370599e+05
1.102970000000000006e+01 9.160318855124291731e+05
1.107559999999999967e+01 8.972630470706940396e+05
1.112160000000000082e+01 8.760751219032072695e+05
1.116750000000000043e+01 8.655195038337461883e+05
1.121349999999999980e+01 8.606009762836974114e+05
1.125939999999999941e+01 8.541083691818576772e+05
1.130540000000000056e+01 8.463835788046813104e+05
1.135139999999999993e+01 8.472707067650983809e+05
1.139729999999999954e+01 8.568121070047835819e+05
1.144330000000000069e+01 8.706460591175730806e+05
1.148920000000000030e+01 8.893848430195593974e+05
1.153519999999999968e+01 9.142761280779433437e+05
1.158109999999999928e+01 9.459832070431933971e+05
1.162710000000000043e+01 9.796443991382418899e+05
1.167300000000000004e+01 1.007443595410663052e+06
1.171899999999999942e+01 1.035473489283120492e+06
1.176500000000000057e+01 1.060200572429503081e+06
1.181090000000000018e+01 1.070116995542637771e+06
1.185689999999999955e+01 1.053049342559030280e+06
1.190279999999999916e+01 1.014623924423553981e+06
1.194880000000000031e+01 9.752336002627228154e+05
1.199469999999999992e+01 9.485386033451091498e+05
1.204069999999999929e+01 9.366941694257300114e+05
1.208670000000000044e+01 9.328153470049171010e+05
1.213260000000000005e+01 9.274283016723047476e+05
1.217859999999999943e+01 9.151182074249055004e+05
1.222450000000000081e+01 9.101270550444336841e+05
1.227050000000000018e+01 9.214476662137550302e+05
1.231639999999999979e+01 9.289718832978676073e+05
1.236239999999999917e+01 9.181846140221041860e+05
1.240840000000000032e+01 8.996500036345920525e+05
1.245429999999999993e+01 8.926191858724717749e+05
1.250029999999999930e+01 8.936488080300240545e+05
1.254620000000000068e+01 8.872958939406848513e+05
1.259220000000000006e+01 8.813034015239863656e+05
1.263809999999999967e+01 8.885125366366218077e+05
1.268410000000000082e+01 9.033025864940288011e+05
1.273010000000000019e+01 9.087479736440357519e+05
1.277599999999999980e+01 8.985892360416414449e+05
1.282199999999999918e+01 8.761695055326102301e+05
1.286790000000000056e+01 8.484827669331857469e+05
1.291389999999999993e+01 8.219954709204328246e+05
1.295979999999999954e+01 7.985900686388968024e+05
1.300580000000000069e+01 7.829372167446040548e+05
1.305180000000000007e+01 7.750277251928914338e+05
1.309769999999999968e+01 7.659463787920473842e+05
1.314370000000000083e+01 7.503180996919019381e+05
1.318960000000000043e+01 7.386326972065527225e+05
1.323559999999999981e+01 7.398805181259793462e+05
1.328149999999999942e+01 7.584236561821608339e+05
1.332750000000000057e+01 7.888191779991762014e+05
1.337349999999999994e+01 8.062952403409287799e+05
1.341939999999999955e+01 7.989782891063858988e+05
1.346540000000000070e+01 7.820940111053207656e+05
1.351130000000000031e+01 7.779318780983241741e+05
1.355729999999999968e+01 7.974892984863971360e+05
1.360319999999999929e+01 8.261570527751386398e+05
1.364920000000000044e+01 8.462059943745115306e+05
1.369519999999999982e+01 8.503922740815147990e+05
1.374109999999999943e+01 8.439215997177965473e+05
1.378710000000000058e+01 8.407298441194526386e+05
1.383300000000000018e+01 8.517247143785544904e+05
1.387899999999999956e+01 8.619848078030627221e+05
1.392489999999999917e+01 8.649247070504078874e+05
1.397090000000000032e+01 8.774756109824674204e+05
1.401689999999999969e+01 8.983254178332512965e+05
1.406279999999999930e+01 9.048220291212823940e+05
1.410880000000000045e+01 8.988390485840645852e+05
1.415470000000000006e+01 8.958601230969774770e+05
1.420069999999999943e+01 9.005220197315789992e+05
1.424660000000000082e+01 9.069050567058728775e+05
1.429260000000000019e+01 9.048524716207943857e+05
1.433849999999999980e+01 8.960644088453302393e+05
1.438449999999999918e+01 8.805759731662037084e+05
1.443050000000000033e+01 8.580299851005030796e+05
1.447639999999999993e+01 8.399102596990085440e+05
1.452239999999999931e+01 8.267300042047740426e+05
1.456830000000000069e+01 8.132045550102476263e+05
1.461430000000000007e+01 7.989986959608349716e+05
1.466019999999999968e+01 7.903849014156995108e+05
1.470620000000000083e+01 7.888530005136636319e+05
1.475220000000000020e+01 7.906003083152273903e+05
1.479809999999999981e+01 7.906219213657168439e+05
1.484409999999999918e+01 7.788785309314653277e+05
1.489000000000000057e+01 7.550548956295071403e+05
1.493599999999999994e+01 7.358746068850470474e+05
1.498189999999999955e+01 7.331688021500556497e+05
1.502790000000000070e+01 7.401450666222055443e+05
1.507390000000000008e+01 7.476674174017710611e+05
1.511979999999999968e+01 7.504883188203531317e+05
1.516580000000000084e+01 7.490264585099200485e+05
1.521170000000000044e+01 7.491623670464723837e+05
1.525769999999999982e+01 7.571656789939198643e+05
1.530359999999999943e+01 7.737812683086872566e+05
1.534960000000000058e+01 7.853643385097709252e+05
1.539559999999999995e+01 7.776012236816167133e+05
1.544149999999999956e+01 7.654770670151558006e+05
1.548750000000000071e+01 7.569236338176969439e+05
1.553340000000000032e+01 7.473299050939425360e+05
1.557939999999999969e+01 7.435923608986284817e+05
1.562529999999999930e+01 7.547990710562429158e+05
1.567130000000000045e+01 7.736147157129509142e+05
1.571729999999999983e+01 7.820954627947759582e+05
1.576319999999999943e+01 7.790715571625400335e+05
1.580920000000000059e+01 7.772358439810805721e+05
1.585510000000000019e+01 7.754311968419018667e+05
1.590109999999999957e+01 7.692237621756774606e+05
1.594699999999999918e+01 7.604405417043642374e+05
1.599300000000000033e+01 7.503531554799277801e+05
1.603900000000000148e+01 7.386990788169602165e+05
1.608490000000000109e+01 7.374155330179964658e+05
1.613090000000000046e+01 7.419485103181777522e+05
1.617680000000000007e+01 7.362544531598119065e+05
1.622279999999999944e+01 7.272427498023799853e+05
1.626869999999999905e+01 7.119812394056803314e+05
1.631469999999999843e+01 6.953249614475159906e+05
1.636070000000000135e+01 6.985529744722356554e+05
1.640660000000000096e+01 7.186781368852023734e+05
1.645260000000000034e+01 7.415319371267753886e+05
1.649849999999999994e+01 7.636254432091981871e+05
1.654449999999999932e+01 7.732489794347886927e+05
1.659039999999999893e+01 7.778800074718680698e+05
1.663639999999999830e+01 7.886379797767944401e+05
1.668240000000000123e+01 8.028987312816327903e+05
1.672830000000000084e+01 8.208055268799278419e+05
1.677430000000000021e+01 8.373389562133752042e+05
1.682019999999999982e+01 8.453490747059112182e+05
1.686619999999999919e+01 8.501269274330078624e+05
1.691209999999999880e+01 8.596602267084546620e+05
1.695810000000000173e+01 8.746051906102487119e+05
1.700400000000000134e+01 8.938423507155814441e+05
1.705000000000000071e+01 9.156148880481654778e+05
1.709600000000000009e+01 9.484388233708315529e+05
1.714189999999999969e+01 1.017631723261599080e+06
1.718789999999999907e+01 1.105511160006503575e+06
1.723379999999999868e+01 1.159954943876343546e+06
1.727980000000000160e+01 1.169209049088313943e+06
1.732570000000000121e+01 1.179742169692817610e+06
1.737170000000000059e+01 1.232354142002945999e+06
1.741769999999999996e+01 1.291394953662685119e+06
1.746359999999999957e+01 1.315066518998445477e+06
1.750959999999999894e+01 1.299287517113805283e+06
1.755549999999999855e+01 1.283862271806675708e+06
1.760150000000000148e+01 1.315814866339114960e+06
1.764740000000000109e+01 1.403797471117724432e+06
1.769340000000000046e+01 1.528121573693534359e+06
1.773939999999999984e+01 1.634947471436562948e+06
1.778529999999999944e+01 1.663750312831525691e+06
1.783129999999999882e+01 1.625860336349204415e+06
1.787719999999999843e+01 1.575096170119473943e+06
1.792320000000000135e+01 1.523573749609712511e+06
1.796910000000000096e+01 1.479843010034803301e+06
1.801510000000000034e+01 1.474382525448171655e+06
1.806109999999999971e+01 1.470072939375634771e+06
1.810699999999999932e+01 1.450547090064481599e+06
1.815299999999999869e+01 1.446691268102947855e+06
1.819889999999999830e+01 1.451696967412804021e+06
1.824490000000000123e+01 1.437795605607183417e+06
1.829080000000000084e+01 1.410575713323720265e+06
