# energy(eV) alpha
0.000000000000000000e+00 0.000000000000000000e+00
3.679999999999999938e-02 4.106491250124182923e-01
7.370000000000000162e-02 1.644778437185042463e+00
1.105000000000000010e-01 3.698853499550164514e+00
1.474000000000000032e-01 6.989355177602771363e+00
1.842000000000000026e-01 1.078831394103429453e+01
2.210999999999999910e-01 1.541411509490742482e+01
2.579000000000000181e-01 2.085334003202972042e+01
2.947000000000000175e-01 2.711074696505312076e+01
3.316000000000000059e-01 3.419623048077151140e+01
3.684000000000000052e-01 4.311604788254786769e+01
4.052999999999999936e-01 5.193969907881267289e+01
4.420999999999999930e-01 6.156549907296419377e+01
4.789999999999999813e-01 7.201974135349215089e+01
5.158000000000000362e-01 8.470674519995904461e+01
5.526999999999999691e-01 9.688764112947370677e+01
5.895000000000000240e-01 1.109532106310239499e+02
6.262999999999999678e-01 1.253800161010650953e+02
6.632000000000000117e-01 1.400861103125441218e+02
6.999999999999999556e-01 1.575181714415464853e+02
7.368999999999999995e-01 1.752934908107426679e+02
7.737000000000000544e-01 1.932644202807228169e+02
8.105999999999999872e-01 2.136218258851167207e+02
8.474000000000000421e-01 2.341637444103410246e+02
8.841999999999999860e-01 2.548135687493509636e+02
9.211000000000000298e-01 2.780446549903587083e+02
9.578999999999999737e-01 3.022320604536049586e+02
9.948000000000000176e-01 3.274310549961674610e+02
1.031600000000000072e+00 3.535783495192811188e+02
1.068500000000000005e+00 3.807267703592339672e+02
1.105299999999999949e+00 4.088109416311172595e+02
1.142200000000000104e+00 4.410435967334272505e+02
1.179000000000000048e+00 4.711496371983278095e+02
1.215799999999999992e+00 5.055488484707715315e+02
1.252699999999999925e+00 5.376960966600800020e+02
1.289500000000000091e+00 5.742805950525714707e+02
1.326400000000000023e+00 6.120521407800590623e+02
1.363199999999999967e+00 6.508963976182670876e+02
1.400099999999999900e+00 6.909093136015956134e+02
1.436900000000000066e+00 7.319872519000829243e+02
1.473700000000000010e+00 7.741637516878855649e+02
1.510599999999999943e+00 8.202413141854614196e+02
1.547400000000000109e+00 8.660771739788197010e+02
1.584300000000000042e+00 9.159941889316885408e+02
1.621099999999999985e+00 9.671031438846822539e+02
1.657999999999999918e+00 1.019534657613610193e+03
1.694800000000000084e+00 1.073133947613431701e+03
1.731600000000000028e+00 1.127965081093886738e+03
1.768499999999999961e+00 1.188879096045376627e+03
1.805299999999999905e+00 1.251109040582980697e+03
1.842200000000000060e+00 1.314777623891176063e+03
1.879000000000000004e+00 1.379756219287143949e+03
1.915899999999999936e+00 1.449581066709037486e+03
1.952700000000000102e+00 1.519035047377704359e+03
1.989600000000000035e+00 1.593513012077654594e+03
2.026400000000000201e+00 1.674836167087752301e+03
2.063200000000000145e+00 1.752256727819194339e+03
2.100099999999999856e+00 1.836832876346516969e+03
2.136899999999999800e+00 1.926714141300458095e+03
2.173799999999999955e+00 2.016439361929898723e+03
2.210599999999999898e+00 2.111597136481364942e+03
2.247500000000000053e+00 2.208548358585310780e+03
2.284299999999999997e+00 2.313109579753299840e+03
2.321099999999999941e+00 2.419509798174681237e+03
2.358000000000000096e+00 2.533990038763417033e+03
2.394800000000000040e+00 2.650285384614744544e+03
2.431700000000000195e+00 2.774940440244767615e+03
2.468500000000000139e+00 2.901480767865898997e+03
2.505399999999999849e+00 3.036633924130585910e+03
2.542199999999999793e+00 3.180379663801965307e+03
2.579099999999999948e+00 3.326445742656973835e+03
2.615899999999999892e+00 3.481289053920444076e+03
2.652699999999999836e+00 3.645222068365646464e+03
2.689599999999999991e+00 3.816216986765250113e+03
2.726399999999999935e+00 3.998777783532678313e+03
2.763300000000000090e+00 4.186328768357615445e+03
2.800100000000000033e+00 4.385670804565511389e+03
2.837000000000000188e+00 4.597408090230434937e+03
2.873800000000000132e+00 4.821399791348287181e+03
2.910600000000000076e+00 5.057880154286030120e+03
2.947499999999999787e+00 5.314698727761579903e+03
2.984300000000000175e+00 5.581785953200576841e+03
3.021199999999999886e+00 5.867223065324700656e+03
3.057999999999999829e+00 6.170707128442056273e+03
3.094899999999999984e+00 6.500657263883545966e+03
3.131699999999999928e+00 6.854368668312750742e+03
3.168499999999999872e+00 7.229680612324325921e+03
3.205400000000000027e+00 7.645367978656119703e+03
3.242199999999999971e+00 8.090790870021043702e+03
3.279100000000000126e+00 8.585291169108111717e+03
3.315900000000000070e+00 9.126164642576801270e+03
3.352799999999999780e+00 9.730456360750411477e+03
3.389600000000000168e+00 1.040881209140426108e+04
3.426499999999999879e+00 1.118419219569320558e+04
3.463299999999999823e+00 1.208947272122148206e+04
3.500100000000000211e+00 1.316148123633504838e+04
3.536999999999999922e+00 1.448782456069557338e+04
3.573799999999999866e+00 1.617571931820737336e+04
3.610700000000000021e+00 1.836567459547315957e+04
3.647499999999999964e+00 2.109739106987916239e+04
3.684400000000000119e+00 2.393776536827448217e+04
3.721200000000000063e+00 2.611399573613143366e+04
3.758000000000000007e+00 2.762097000421403209e+04
3.794900000000000162e+00 2.951991370581603042e+04
3.831700000000000106e+00 3.279296236581993435e+04
3.868599999999999817e+00 3.801640955895872321e+04
3.905400000000000205e+00 4.517540277113476623e+04
3.942299999999999915e+00 5.256275708614185714e+04
3.979099999999999859e+00 5.752257623547098046e+04
4.016000000000000014e+00 6.037867743224906735e+04
4.052800000000000402e+00 6.439873681476676575e+04
4.089599999999999902e+00 7.214545678122385289e+04
4.126500000000000057e+00 8.417078697446083243e+04
4.163299999999999557e+00 9.918535217799729435e+04
4.200199999999999712e+00 1.136860978835520364e+05
4.237000000000000099e+00 1.250561112201320939e+05
4.273900000000000254e+00 1.357391163754671288e+05
4.310699999999999754e+00 1.479793234721087501e+05
4.347500000000000142e+00 1.597345351627741766e+05
4.384400000000000297e+00 1.687252214621580206e+05
4.421199999999999797e+00 1.773230524926029320e+05
4.458099999999999952e+00 1.893597001057606540e+05
4.494900000000000340e+00 2.083552574076335877e+05
4.531799999999999606e+00 2.373386486287666194e+05
4.568599999999999994e+00 2.760417939049262204e+05
4.605400000000000382e+00 3.214569981267706025e+05
4.642299999999999649e+00 3.677161448418360669e+05
4.679100000000000037e+00 4.043681743900453439e+05
4.716000000000000192e+00 4.201642886781539419e+05
4.752799999999999692e+00 4.150601553385622101e+05
4.789699999999999847e+00 4.006097746784306364e+05
4.826500000000000234e+00 3.876639981876220554e+05
4.863400000000000389e+00 3.822933836717981030e+05
4.900199999999999889e+00 3.878100874990160228e+05
4.937000000000000277e+00 4.036293869528893847e+05
4.973900000000000432e+00 4.235455098844160093e+05
5.010699999999999932e+00 4.396412261953821871e+05
5.047600000000000087e+00 4.518765703145673615e+05
5.084399999999999586e+00 4.664921812905285042e+05
5.121299999999999741e+00 4.863651808166584815e+05
5.158100000000000129e+00 5.108171772603132995e+05
5.194899999999999629e+00 5.381368513592152158e+05
5.231799999999999784e+00 5.665456795933030080e+05
5.268600000000000172e+00 5.906059558477026876e+05
5.305500000000000327e+00 6.006611603167196736e+05
5.342299999999999827e+00 5.952792005451094592e+05
5.379199999999999982e+00 5.836568966050683521e+05
5.416000000000000369e+00 5.780009866225327132e+05
5.452899999999999636e+00 5.834177238186226459e+05
5.489700000000000024e+00 5.960019379208489554e+05
5.526500000000000412e+00 6.123660946243999060e+05
5.563399999999999679e+00 6.318197034156537848e+05
5.600200000000000067e+00 6.493261827926908154e+05
5.637100000000000222e+00 6.611264259410121012e+05
5.673899999999999721e+00 6.665993462005435722e+05
5.710799999999999876e+00 6.682146987445366103e+05
5.747600000000000264e+00 6.718624739048199262e+05
5.784399999999999764e+00 6.825816114359584171e+05
5.821299999999999919e+00 6.980714332339523826e+05
5.858100000000000307e+00 7.106328571488714078e+05
5.894999999999999574e+00 7.182082374866118189e+05
5.931799999999999962e+00 7.223551721183209447e+05
5.968700000000000117e+00 7.223519298974375706e+05
6.005499999999999616e+00 7.171526000717062270e+05
6.042300000000000004e+00 7.088473099379150663e+05
6.079200000000000159e+00 7.015862564337508520e+05
6.115999999999999659e+00 6.996080055500598392e+05
6.152899999999999814e+00 7.046848980859875446e+05
6.189700000000000202e+00 7.146890773535649059e+05
6.226600000000000357e+00 7.258517818453101208e+05
6.263399999999999856e+00 7.349508444447013317e+05
6.300300000000000011e+00 7.434475001337976428e+05
6.337100000000000399e+00 7.568003163359493483e+05
6.373899999999999899e+00 7.796534250265571754e+05
6.410800000000000054e+00 8.087773503412585706e+05
6.447600000000000442e+00 8.325132504952735035e+05
6.484499999999999709e+00 8.431459969993383856e+05
6.521300000000000097e+00 8.433227268474783050e+05
6.558200000000000252e+00 8.386600729365932057e+05
6.594999999999999751e+00 8.334192021853273036e+05
6.631800000000000139e+00 8.304587609836782794e+05
6.668700000000000294e+00 8.282530132018302102e+05
6.705499999999999794e+00 8.295851944412118755e+05
6.742399999999999949e+00 8.407451396782317897e+05
6.779200000000000337e+00 8.594285415187168401e+05
6.816099999999999604e+00 8.769538209195318632e+05
6.852899999999999991e+00 8.870513018820367288e+05
6.889800000000000146e+00 8.899664728844288038e+05
6.926599999999999646e+00 8.894338833787316689e+05
6.963400000000000034e+00 8.913444651509722462e+05
7.000300000000000189e+00 8.980008499057720182e+05
7.037099999999999689e+00 9.031916409531654790e+05
7.073999999999999844e+00 9.026009698466918198e+05
7.110800000000000232e+00 8.964902148018442094e+05
7.147700000000000387e+00 8.856292547286010813e+05
7.184499999999999886e+00 8.701878449238517787e+05
7.221300000000000274e+00 8.495023145958038513e+05
7.258200000000000429e+00 8.263992325710679870e+05
7.294999999999999929e+00 8.047722599168785382e+05
7.331900000000000084e+00 7.831942460035668919e+05
7.368699999999999584e+00 7.586378676812412450e+05
7.405599999999999739e+00 7.279914588974928483e+05
7.442400000000000126e+00 6.920767868870081147e+05
7.479199999999999626e+00 6.585498975025377003e+05
7.516099999999999781e+00 6.320237126084510237e+05
7.552900000000000169e+00 6.116460565588272875e+05
7.589800000000000324e+00 5.978577419443252729e+05
7.626599999999999824e+00 5.919672131609662902e+05
7.663499999999999979e+00 5.941504066727417521e+05
7.700300000000000367e+00 6.028627194472708507e+05
7.737199999999999633e+00 6.139923860887606861e+05
7.774000000000000021e+00 6.237743006255690707e+05
7.810800000000000409e+00 6.336170108686218737e+05
7.847699999999999676e+00 6.464579157493858365e+05
7.884500000000000064e+00 6.632229541016494622e+05
7.921400000000000219e+00 6.863199094721787842e+05
7.958199999999999719e+00 7.138012602960520890e+05
7.995099999999999874e+00 7.344040608456047485e+05
8.031900000000000261e+00 7.429289862968939124e+05
8.068699999999999761e+00 7.441957303966704058e+05
8.105600000000000804e+00 7.420537098864419386e+05
8.142400000000000304e+00 7.387737490442760754e+05
8.179299999999999571e+00 7.404389371302005602e+05
8.216100000000000847e+00 7.480321506013652543e+05
8.253000000000000114e+00 7.567055918576838449e+05
8.289799999999999613e+00 7.645567917184801772e+05
8.326700000000000657e+00 7.723010462650223635e+05
8.363500000000000156e+00 7.798281121275890619e+05
8.400299999999999656e+00 7.863761561802569777e+05
8.437200000000000699e+00 7.933664813777189702e+05
8.474000000000000199e+00 8.014402983113240916e+05
8.510899999999999466e+00 8.067439096575848525e+05
8.547700000000000742e+00 8.040717187323388644e+05
8.584600000000000009e+00 7.926983943021683954e+05
8.621399999999999508e+00 7.767756734347916208e+05
8.658200000000000784e+00 7.614217235905840062e+05
8.695100000000000051e+00 7.498967734793567797e+05
8.731899999999999551e+00 7.416129698158872779e+05
8.768800000000000594e+00 7.323588931698392844e+05
8.805600000000000094e+00 7.174150946386900032e+05
8.842499999999999361e+00 6.987904939322322607e+05
8.879300000000000637e+00 6.837819051368165528e+05
8.916100000000000136e+00 6.769410679723453941e+05
8.952999999999999403e+00 6.775150973395019537e+05
8.989800000000000679e+00 6.822125736695050728e+05
9.026699999999999946e+00 6.894796985346324509e+05
9.063499999999999446e+00 6.959663982177826110e+05
9.100400000000000489e+00 6.986272376745424699e+05
9.137199999999999989e+00 6.993667080220476491e+05
9.174099999999999255e+00 7.021385350409563398e+05
9.210900000000000531e+00 7.095214972988816444e+05
9.247700000000000031e+00 7.200688438860934693e+05
9.284599999999999298e+00 7.291438941813036799e+05
9.321400000000000574e+00 7.354439118125473615e+05
9.358299999999999841e+00 7.383985182249958161e+05
9.395099999999999341e+00 7.322741353514082730e+05
9.432000000000000384e+00 7.129678765537703875e+05
9.468799999999999883e+00 6.868344157652154099e+05
9.505599999999999383e+00 6.636330196437183768e+05
9.542500000000000426e+00 6.477587572674965486e+05
9.579299999999999926e+00 6.384754105416642269e+05
9.616199999999999193e+00 6.338121990416046465e+05
9.653000000000000469e+00 6.329703039450841025e+05
9.689899999999999736e+00 6.373229835611123126e+05
9.726699999999999235e+00 6.466834126655088039e+05
9.763500000000000512e+00 6.563201021577058127e+05
9.800399999999999778e+00 6.611179018763140775e+05
9.837199999999999278e+00 6.614602310647653649e+05
9.874100000000000321e+00 6.601574285969455959e+05
9.910899999999999821e+00 6.580811731503951596e+05
9.947800000000000864e+00 6.538064860527678393e+05
9.984600000000000364e+00 6.467012841340871528e+05
1.002149999999999963e+01 6.426350775807793252e+05
1.005829999999999913e+01 6.490590017367600231e+05
1.009510000000000041e+01 6.652076419324162416e+05
1.013199999999999967e+01 6.827723081200775923e+05
1.016879999999999917e+01 6.936579623450553045e+05
1.020570000000000022e+01 6.962064683638917049e+05
1.024249999999999972e+01 6.932967607483929023e+05
1.027940000000000076e+01 6.885427080112260301e+05
1.031620000000000026e+01 6.851022617844302440e+05
1.035299999999999976e+01 6.846690174639620818e+05
1.038990000000000080e+01 6.857566413444628706e+05
1.042670000000000030e+01 6.882317733670568559e+05
1.046359999999999957e+01 6.965537274330446962e+05
1.050040000000000084e+01 7.136567507162240800e+05
1.053730000000000011e+01 7.370423737353216857e+05
1.057409999999999961e+01 7.593908544583064504e+05
1.061100000000000065e+01 7.743690825116977794e+05
1.064780000000000015e+01 7.811410227774333907e+05
1.068459999999999965e+01 7.811502827390506864e+05
1.072150000000000070e+01 7.749501703111858806e+05
1.075830000000000020e+01 7.661943090426814742e+05
1.079519999999999946e+01 7.588318421898173401e+05
1.083200000000000074e+01 7.572030305227886420e+05
1.086890000000000001e+01 7.666538671521070646e+05
1.090569999999999951e+01 7.897119427838169504e+05
1.094250000000000078e+01 8.223002178880225401e+05
1.097940000000000005e+01 8.541205800454296404e+05
1.101619999999999955e+01 8.753138775183226680e+05
1.105310000000000059e+01 8.801132490274546435e+05
1.108990000000000009e+01 8.690016132131204940e+05
1.112679999999999936e+01 8.479698310688891215e+05
1.116360000000000063e+01 8.273699959965499584e+05
1.120040000000000013e+01 8.181437021773977904e+05
1.123729999999999940e+01 8.192678408815311268e+05
1.127410000000000068e+01 8.195933201684101950e+05
1.131099999999999994e+01 8.117217716912615579e+05
1.134779999999999944e+01 7.953914958633497590e+05
1.138470000000000049e+01 7.728122917004071642e+05
1.142149999999999999e+01 7.503886444094449980e+05
1.145839999999999925e+01 7.359211029487540945e+05
1.149520000000000053e+01 7.308696964522656053e+05
1.153200000000000003e+01 7.318573018880194286e+05
1.156889999999999930e+01 7.346506264167113695e+05
1.160570000000000057e+01 7.376129814026729437e+05
1.164259999999999984e+01 7.398558810399397044e+05
1.167939999999999934e+01 7.371413123176784720e+05
1.171630000000000038e+01 7.268420029853353044e+05
1.175309999999999988e+01 7.112076941978035029e+05
1.178989999999999938e+01 6.935341648458736017e+05
1.182680000000000042e+01 6.769039687567396322e+05
1.186359999999999992e+01 6.624415280484769028e+05
1.190049999999999919e+01 6.476628537079655798e+05
1.193730000000000047e+01 6.290167078558168141e+05
1.197419999999999973e+01 6.060629840773557080e+05
1.201099999999999923e+01 5.815400377344302833e+05
1.204790000000000028e+01 5.608989129119617864e+05
1.208469999999999978e+01 5.491662176198848756e+05
1.212149999999999928e+01 5.460774133508810773e+05
1.215840000000000032e+01 5.464020993633735925e+05
1.219519999999999982e+01 5.437863043836646248e+05
1.223210000000000086e+01 5.367696678095670650e+05
1.226890000000000036e+01 5.270415926652911585e+05
1.230579999999999963e+01 5.190910092940003378e+05
1.234259999999999913e+01 5.187755103196349810e+05
1.237940000000000040e+01 5.274858305864490103e+05
1.241629999999999967e+01 5.408958065191153437e+05
1.245309999999999917e+01 5.540713529861257412e+05
1.249000000000000021e+01 5.650182000743000535e+05
1.252679999999999971e+01 5.740785609355305787e+05
1.256370000000000076e+01 5.808414838379933499e+05
1.260050000000000026e+01 5.895288379620307824e+05
1.263729999999999976e+01 6.020381856459422270e+05
1.267420000000000080e+01 6.123641883395245532e+05
1.271100000000000030e+01 6.191186606488400139e+05
1.274789999999999957e+01 6.276134153527443996e+05
1.278470000000000084e+01 6.403097890106085688e+05
1.282160000000000011e+01 6.606847014721002197e+05
1.285839999999999961e+01 6.886799158378936118e+05
1.289530000000000065e+01 7.169668101674701320e+05
1.293210000000000015e+01 7.367170224039060995e+05
1.296889999999999965e+01 7.405973137605183292e+05
1.300580000000000069e+01 7.340747716204475146e+05
1.304260000000000019e+01 7.331303132597908843e+05
1.307949999999999946e+01 7.424767518515095580e+05
1.311630000000000074e+01 7.526307588200498139e+05
1.315320000000000000e+01 7.570590914948520949e+05
1.318999999999999950e+01 7.549047269948328612e+05
1.322680000000000078e+01 7.437268359070218867e+05
1.326370000000000005e+01 7.231131124558401061e+05
1.330049999999999955e+01 7.053600255815873388e+05
1.333740000000000059e+01 7.048415267156297341e+05
1.337420000000000009e+01 7.191927347370648058e+05
1.341109999999999935e+01 7.382266787320482545e+05
1.344790000000000063e+01 7.605797158225909807e+05
1.348479999999999990e+01 7.868927165837237844e+05
1.352159999999999940e+01 8.174456757869367721e+05
1.355840000000000067e+01 8.518729429498928366e+05
1.359529999999999994e+01 8.871402815016940003e+05
1.363209999999999944e+01 9.164949161507551325e+05
1.366900000000000048e+01 9.375813734921561554e+05
1.370579999999999998e+01 9.583420399135306943e+05
1.374269999999999925e+01 9.839905076505062170e+05
1.377950000000000053e+01 1.019319008873941377e+06
1.381630000000000003e+01 1.065310319044434931e+06
1.385319999999999929e+01 1.117173728672934230e+06
1.389000000000000057e+01 1.162211138954030350e+06
1.392689999999999984e+01 1.193233816990101943e+06
1.396369999999999933e+01 1.216129080142539693e+06
1.400060000000000038e+01 1.248340013250655262e+06
1.403739999999999988e+01 1.314580491966640577e+06
1.407419999999999938e+01 1.416757186396167846e+06
1.411110000000000042e+01 1.527657801899813814e+06
1.414789999999999992e+01 1.630525747624633834e+06
1.418479999999999919e+01 1.717634532247297000e+06
1.422160000000000046e+01 1.760597404201653553e+06
1.425849999999999973e+01 1.749739639416022692e+06
1.429529999999999923e+01 1.694653758987363661e+06
1.433220000000000027e+01 1.605738133690526243e+06
1.436899999999999977e+01 1.506815764405549970e+06
1.440579999999999927e+01 1.423953139895493397e+06
1.444270000000000032e+01 1.360744589324964676e+06
1.447949999999999982e+01 1.310863999640792608e+06
1.451640000000000086e+01 1.279779264895672211e+06
1.455320000000000036e+01 1.264110701532644918e+06
1.459009999999999962e+01 1.243691204776565777e+06
1.462689999999999912e+01 1.214538133173126960e+06
1.466370000000000040e+01 1.181324864940932719e+06
