# energy(eV) alpha
0.000000000000000000e+00 0.000000000000000000e+00
3.549999999999999684e-02 6.487621798745962565e+00
7.109999999999999654e-02 2.612153545873267291e+01
1.066000000000000003e-01 5.924969969895533239e+01
1.421000000000000041e-01 1.065583480024569667e+02
1.776999999999999968e-01 1.694335062843180424e+02
2.132000000000000006e-01 2.491045462324200344e+02
2.487000000000000044e-01 3.472946306744795493e+02
2.842999999999999972e-01 4.671931435353591269e+02
3.197999999999999732e-01 6.116642210082496831e+02
3.553000000000000047e-01 7.851992732911968460e+02
3.909000000000000252e-01 9.946849894597845605e+02
4.264000000000000012e-01 1.247485324073128822e+03
4.618999999999999773e-01 1.553700426322780459e+03
4.974999999999999978e-01 1.929796069083696693e+03
5.330000000000000293e-01 2.396687209803630594e+03
5.685000000000000053e-01 2.984803207141272651e+03
6.040999999999999703e-01 3.740181726432479991e+03
6.395999999999999464e-01 4.732376866033182523e+03
6.751000000000000334e-01 6.067502412627842205e+03
7.106999999999999984e-01 7.923735611242711457e+03
7.461999999999999744e-01 1.058843091746965183e+04
7.816999999999999504e-01 1.454536132298764278e+04
8.173000000000000265e-01 2.057525626460022613e+04
8.528000000000000025e-01 2.967003868125884037e+04
8.882999999999999785e-01 4.202979129670012480e+04
9.239000000000000545e-01 5.427394083668327221e+04
9.594000000000000306e-01 5.929045719470183394e+04
9.949000000000000066e-01 5.397905252506602119e+04
1.030499999999999972e+00 4.342770600702831143e+04
1.066000000000000059e+00 3.380781795295047050e+04
1.101499999999999924e+00 2.710414302600397423e+04
1.137100000000000000e+00 2.295940236391996223e+04
1.172600000000000087e+00 2.066375115420403381e+04
1.208099999999999952e+00 1.973289963710958546e+04
1.243700000000000028e+00 1.992367603160535509e+04
1.279199999999999893e+00 2.119431490132682302e+04
1.314699999999999980e+00 2.368443486004236911e+04
1.350300000000000056e+00 2.768575366361111446e+04
1.385799999999999921e+00 3.347980988936717040e+04
1.421300000000000008e+00 4.107650990727650787e+04
1.456900000000000084e+00 5.104241845576523338e+04
1.492399999999999949e+00 6.582047288543623290e+04
1.527900000000000036e+00 8.821710649975639535e+04
1.563499999999999890e+00 1.170572883050780947e+05
1.598999999999999977e+00 1.404991815848627302e+05
1.634500000000000064e+00 1.415515600177480374e+05
1.670099999999999918e+00 1.223603464585204929e+05
1.705600000000000005e+00 1.001368407251070021e+05
1.741100000000000092e+00 8.522522945827963122e+04
1.776699999999999946e+00 7.944565172864696069e+04
1.812200000000000033e+00 8.206822932944272179e+04
1.847699999999999898e+00 9.102145487238731585e+04
1.883299999999999974e+00 1.002871036644684209e+05
1.918800000000000061e+00 1.035559524168635980e+05
1.954299999999999926e+00 1.036927130079190683e+05
1.989900000000000002e+00 1.048036594065385580e+05
2.025399999999999867e+00 1.067795589118593925e+05
2.060900000000000176e+00 1.128935321080581925e+05
2.096499999999999808e+00 1.278894194917939021e+05
2.132000000000000117e+00 1.519201625091721071e+05
2.167499999999999982e+00 1.769206057820935384e+05
2.203100000000000058e+00 1.928284199177689443e+05
2.238599999999999923e+00 2.036166701469161490e+05
2.274099999999999788e+00 2.148522424262447748e+05
2.309699999999999864e+00 2.192001305483888136e+05
2.345200000000000173e+00 2.138979686992554634e+05
2.380700000000000038e+00 2.103817970906197152e+05
2.416300000000000114e+00 2.170779333132622996e+05
2.451799999999999979e+00 2.290053787900916068e+05
2.487299999999999844e+00 2.380463625027672388e+05
2.522899999999999920e+00 2.431256588469723647e+05
2.558399999999999785e+00 2.431771273028213764e+05
2.593900000000000095e+00 2.389426779986718902e+05
2.629500000000000171e+00 2.294266004263223440e+05
2.665000000000000036e+00 2.117695908984644338e+05
2.700499999999999901e+00 1.945112526994292566e+05
2.736099999999999977e+00 1.901147276117842121e+05
2.771599999999999842e+00 2.044934811777718423e+05
2.807100000000000151e+00 2.395434220711218659e+05
2.842699999999999783e+00 2.925991200981965521e+05
2.878200000000000092e+00 3.474529034440091345e+05
2.913699999999999957e+00 3.757169617711693863e+05
2.949300000000000033e+00 3.665568109400677495e+05
2.984799999999999898e+00 3.411908257194124162e+05
3.020300000000000207e+00 3.267947298560551135e+05
3.055899999999999839e+00 3.261546018294039532e+05
3.091400000000000148e+00 3.256778157490337617e+05
3.126900000000000013e+00 3.244609261050061905e+05
3.162500000000000089e+00 3.266288736333897687e+05
3.197999999999999954e+00 3.224210405372202513e+05
3.233499999999999819e+00 3.039839550639066729e+05
3.269099999999999895e+00 2.812084691043540952e+05
3.304600000000000204e+00 2.646322183305330691e+05
3.340100000000000069e+00 2.529067160825095198e+05
3.375700000000000145e+00 2.459733529663438385e+05
3.411200000000000010e+00 2.419307328567907971e+05
3.446699999999999875e+00 2.346871251025870733e+05
3.482299999999999951e+00 2.294899059090715600e+05
3.517799999999999816e+00 2.374687751610317500e+05
3.553300000000000125e+00 2.629693127745377133e+05
3.588900000000000201e+00 3.022325272204206558e+05
3.624400000000000066e+00 3.385815374372834922e+05
3.659899999999999931e+00 3.491458116846853518e+05
3.695500000000000007e+00 3.374582587249304052e+05
3.730999999999999872e+00 3.274070889989827992e+05
3.766500000000000181e+00 3.342217212329771137e+05
3.802099999999999813e+00 3.537587528058774769e+05
3.837600000000000122e+00 3.702892541430820711e+05
3.873099999999999987e+00 3.780774876167956972e+05
3.908700000000000063e+00 3.761191055780861643e+05
3.944199999999999928e+00 3.575031740515197162e+05
3.979699999999999793e+00 3.299119324868085096e+05
4.015299999999999869e+00 3.106724624701666762e+05
4.050799999999999734e+00 3.045451344429826131e+05
4.086299999999999599e+00 3.044799656873399508e+05
4.121900000000000119e+00 3.047049869445803924e+05
4.157399999999999984e+00 3.031370594208658440e+05
4.192899999999999849e+00 2.939902903758406173e+05
4.228500000000000369e+00 2.777525446938335663e+05
4.264000000000000234e+00 2.632568595360168256e+05
4.299500000000000099e+00 2.588695168474111997e+05
4.335099999999999731e+00 2.637217396917929291e+05
4.370599999999999596e+00 2.680949266934815096e+05
4.406100000000000350e+00 2.660587874701768742e+05
4.441699999999999982e+00 2.614466220488362305e+05
4.477199999999999847e+00 2.596823156744054286e+05
4.512699999999999712e+00 2.645472673316977452e+05
4.548300000000000232e+00 2.785492251953062369e+05
4.583800000000000097e+00 2.991025803021533065e+05
4.619299999999999962e+00 3.179867188612095197e+05
4.654899999999999594e+00 3.255873275422035949e+05
4.690400000000000347e+00 3.224660634702659445e+05
4.725900000000000212e+00 3.154590671768534230e+05
4.761499999999999844e+00 3.092252699775925721e+05
4.796999999999999709e+00 3.096592229972689529e+05
4.832499999999999574e+00 3.232412561722354731e+05
4.868100000000000094e+00 3.510728126967728022e+05
4.903599999999999959e+00 3.889866012927276315e+05
4.939099999999999824e+00 4.311920664051395142e+05
4.974700000000000344e+00 4.699814718476582784e+05
5.010200000000000209e+00 5.008697349790000590e+05
5.045700000000000074e+00 5.208401620642392663e+05
5.081299999999999706e+00 5.299847299247647170e+05
5.116799999999999571e+00 5.315446456053523580e+05
5.152300000000000324e+00 5.300331469609267078e+05
5.187899999999999956e+00 5.259562326768147759e+05
5.223399999999999821e+00 5.146067421237961389e+05
5.258899999999999686e+00 4.912735042152415263e+05
5.294500000000000206e+00 4.614968162518439349e+05
5.330000000000000071e+00 4.370794620209561544e+05
5.365499999999999936e+00 4.270726316431834712e+05
5.401099999999999568e+00 4.328757816003601183e+05
5.436600000000000321e+00 4.440736126956181251e+05
5.472100000000000186e+00 4.503450249126867857e+05
5.507699999999999818e+00 4.528203269571554847e+05
5.543199999999999683e+00 4.524488714318504208e+05
5.578700000000000436e+00 4.447426870696273400e+05
5.614300000000000068e+00 4.323422191729077604e+05
5.649799999999999933e+00 4.207058879628409049e+05
5.685299999999999798e+00 4.060065846700862749e+05
5.720900000000000318e+00 3.856196375682506477e+05
5.756400000000000183e+00 3.652964467879256117e+05
5.791900000000000048e+00 3.501642755356035195e+05
5.827499999999999680e+00 3.422425305665012565e+05
5.863000000000000433e+00 3.396588665996366763e+05
5.898500000000000298e+00 3.375144870735646691e+05
5.934099999999999930e+00 3.357474817184834392e+05
5.969599999999999795e+00 3.355668695930554532e+05
6.005099999999999660e+00 3.376602021649604430e+05
6.040700000000000180e+00 3.401268185026504216e+05
6.076200000000000045e+00 3.380039998657554970e+05
6.111699999999999910e+00 3.343623997039716342e+05
6.147300000000000431e+00 3.345126505588027649e+05
6.182800000000000296e+00 3.387745038158960524e+05
6.218300000000000161e+00 3.468207318730541738e+05
6.253899999999999793e+00 3.602298851635310566e+05
6.289399999999999658e+00 3.808491245860995259e+05
6.324900000000000411e+00 4.066412352148199570e+05
6.360500000000000043e+00 4.334637090805760236e+05
6.395999999999999908e+00 4.573625659747461905e+05
6.431499999999999773e+00 4.704381394898133585e+05
6.467100000000000293e+00 4.721337496116712573e+05
6.502600000000000158e+00 4.698665903493005317e+05
6.538100000000000023e+00 4.658670846795695252e+05
6.573699999999999655e+00 4.592949089071405469e+05
6.609200000000000408e+00 4.492407226062897244e+05
6.644700000000000273e+00 4.353113019057110068e+05
6.680299999999999905e+00 4.224817895027441555e+05
6.715799999999999770e+00 4.152684290784155601e+05
6.751299999999999635e+00 4.141634252175957081e+05
6.786900000000000155e+00 4.195263089543315000e+05
6.822400000000000020e+00 4.286632975078850286e+05
6.857899999999999885e+00 4.391931324553404120e+05
6.893500000000000405e+00 4.496508599706576788e+05
6.929000000000000270e+00 4.580014686038467335e+05
6.964500000000000135e+00 4.617388480641033384e+05
7.000099999999999767e+00 4.573616810128047364e+05
7.035599999999999632e+00 4.437327377695321920e+05
7.071100000000000385e+00 4.240857587425769889e+05
7.106700000000000017e+00 4.061041599616567837e+05
7.142199999999999882e+00 3.960416257964626420e+05
7.177699999999999747e+00 3.938970850967752631e+05
7.213300000000000267e+00 3.969809021904859110e+05
7.248800000000000132e+00 4.018393063276978792e+05
7.284299999999999997e+00 4.032925305382201914e+05
7.319899999999999629e+00 4.004507081488321419e+05
7.355400000000000382e+00 3.974678759782023844e+05
7.390900000000000247e+00 3.965225681084057433e+05
7.426499999999999879e+00 3.991562798723247251e+05
7.461999999999999744e+00 4.074571949954334414e+05
7.497499999999999609e+00 4.207091341226298246e+05
7.533100000000000129e+00 4.359628476034541964e+05
7.568599999999999994e+00 4.529867786424350343e+05
7.604099999999999859e+00 4.764575397879044176e+05
7.639700000000000379e+00 5.100639162376279128e+05
7.675200000000000244e+00 5.527654989079412771e+05
7.710700000000000109e+00 5.987145803576440085e+05
7.746299999999999741e+00 6.387315292198567186e+05
7.781799999999999606e+00 6.677810195193246473e+05
7.817300000000000360e+00 6.859106803618595004e+05
7.852899999999999991e+00 6.931180235904352739e+05
7.888399999999999856e+00 6.919485404832874192e+05
7.923899999999999721e+00 6.878042800098794978e+05
7.959500000000000242e+00 6.859156913571424084e+05
7.995000000000000107e+00 6.880237179409973323e+05
8.030499999999999972e+00 6.955441954579015728e+05
8.066100000000000492e+00 7.100360749478157377e+05
8.101599999999999469e+00 7.270223156050377293e+05
8.137100000000000222e+00 7.388136280034356751e+05
8.172700000000000742e+00 7.447428952730778838e+05
8.208199999999999719e+00 7.468345141451105010e+05
8.243700000000000472e+00 7.459577296205656603e+05
8.279299999999999216e+00 7.433740677731953328e+05
8.314799999999999969e+00 7.401533793564483058e+05
8.350300000000000722e+00 7.365754425861113705e+05
8.385899999999999466e+00 7.350233928543275688e+05
8.421400000000000219e+00 7.410823746875328943e+05
8.456899999999999196e+00 7.573499295170967234e+05
8.492499999999999716e+00 7.809484654027747456e+05
8.528000000000000469e+00 8.041092292331109056e+05
8.563499999999999446e+00 8.180156104255605023e+05
8.599099999999999966e+00 8.240970446863224497e+05
8.634600000000000719e+00 8.282615738713301253e+05
8.670099999999999696e+00 8.321667626513660653e+05
8.705700000000000216e+00 8.333402546842197189e+05
8.741199999999999193e+00 8.287197361530698836e+05
8.776699999999999946e+00 8.197597182693079812e+05
8.812300000000000466e+00 8.117040955837662332e+05
8.847799999999999443e+00 8.058478515070474241e+05
8.883300000000000196e+00 7.994157575206650654e+05
8.918900000000000716e+00 7.940707230022249278e+05
8.954399999999999693e+00 7.935737305221615825e+05
8.989900000000000446e+00 7.981102285688302945e+05
9.025499999999999190e+00 8.043441362475573551e+05
9.060999999999999943e+00 8.070135658623183845e+05
9.096500000000000696e+00 8.013309478877888760e+05
9.132099999999999440e+00 7.874992223273252603e+05
9.167600000000000193e+00 7.711678451517574722e+05
9.203200000000000713e+00 7.520068056882510427e+05
9.238699999999999690e+00 7.234591512652209494e+05
9.274200000000000443e+00 6.842394315155933145e+05
9.309799999999999187e+00 6.374955939691783860e+05
9.345299999999999940e+00 5.891011229366839398e+05
9.380800000000000693e+00 5.513465819670412457e+05
9.416399999999999437e+00 5.338694281980219530e+05
9.451900000000000190e+00 5.345872396951988339e+05
9.487399999999999167e+00 5.471878463638721732e+05
9.522999999999999687e+00 5.683951957708186237e+05
9.558500000000000441e+00 5.978666403894161340e+05
9.593999999999999417e+00 6.324989297540405532e+05
9.629599999999999937e+00 6.609397499539410928e+05
9.665100000000000691e+00 6.717592731559374370e+05
9.700599999999999667e+00 6.699955399363626493e+05
9.736200000000000188e+00 6.683677405612292932e+05
9.771699999999999164e+00 6.682822539342590608e+05
9.807199999999999918e+00 6.651040564557684120e+05
9.842800000000000438e+00 6.561537165012358455e+05
9.878299999999999415e+00 6.419638571154564852e+05
9.913800000000000168e+00 6.284254053449465428e+05
9.949400000000000688e+00 6.204119289057618007e+05
9.984899999999999665e+00 6.178229441718611633e+05
1.002040000000000042e+01 6.247455869619289879e+05
1.005599999999999916e+01 6.466684351371029625e+05
1.009149999999999991e+01 6.798385318861551350e+05
1.012700000000000067e+01 7.149595840163044631e+05
1.016259999999999941e+01 7.455300168475123355e+05
1.019810000000000016e+01 7.706740825008165557e+05
1.023359999999999914e+01 7.875843863470517099e+05
1.026919999999999966e+01 7.947379157558751758e+05
1.030470000000000041e+01 7.976419360316719394e+05
1.034019999999999939e+01 8.001772023063414963e+05
1.037579999999999991e+01 8.018034909865629161e+05
1.041130000000000067e+01 8.070164403607194545e+05
1.044679999999999964e+01 8.182629458126117243e+05
1.048240000000000016e+01 8.281378151485905983e+05
1.051789999999999914e+01 8.335746524280636804e+05
1.055339999999999989e+01 8.409190416442460846e+05
1.058900000000000041e+01 8.508206751301439945e+05
1.062449999999999939e+01 8.555670584548327606e+05
1.066000000000000014e+01 8.524086292513154913e+05
1.069560000000000066e+01 8.471786402133922093e+05
1.073109999999999964e+01 8.468420418610819615e+05
1.076660000000000039e+01 8.526888313764968188e+05
1.080219999999999914e+01 8.649048321159777697e+05
1.083769999999999989e+01 8.868960418202122673e+05
1.087320000000000064e+01 9.165295091250404948e+05
1.090879999999999939e+01 9.435263801537345862e+05
1.094430000000000014e+01 9.587137689665686339e+05
1.097979999999999912e+01 9.629318541182548506e+05
1.101539999999999964e+01 9.704436644530753838e+05
1.105090000000000039e+01 9.907747204415536253e+05
1.108639999999999937e+01 1.017817390707991901e+06
1.112199999999999989e+01 1.050976293561382685e+06
1.115750000000000064e+01 1.093007054631446023e+06
1.119299999999999962e+01 1.135719451282569440e+06
1.122860000000000014e+01 1.168964539107558550e+06
1.126409999999999911e+01 1.186040697010195116e+06
1.129959999999999987e+01 1.179632551179631380e+06
1.133520000000000039e+01 1.148437996035735356e+06
1.137069999999999936e+01 1.098053286564760376e+06
1.140620000000000012e+01 1.037000543609534740e+06
1.144180000000000064e+01 9.790010286770156818e+05
1.147729999999999961e+01 9.370294009070877219e+05
1.151280000000000037e+01 9.141815190861843294e+05
1.154840000000000089e+01 9.013558994845375419e+05
1.158389999999999986e+01 8.904144544645709684e+05
1.161940000000000062e+01 8.792834689497266663e+05
1.165499999999999936e+01 8.663122950864240993e+05
1.169050000000000011e+01 8.564679441711698892e+05
1.172600000000000087e+01 8.559382415545538533e+05
1.176159999999999961e+01 8.629301771206839476e+05
1.179710000000000036e+01 8.679083987330999225e+05
1.183259999999999934e+01 8.646352784095327370e+05
1.186819999999999986e+01 8.612536822599775624e+05
1.190370000000000061e+01 8.688493078750749119e+05
1.193919999999999959e+01 8.907297739000761649e+05
1.197480000000000011e+01 9.211795229958975688e+05
1.201030000000000086e+01 9.493536257593237096e+05
1.204579999999999984e+01 9.658084559400988510e+05
1.208140000000000036e+01 9.699747880893938709e+05
1.211689999999999934e+01 9.697359683798699407e+05
1.215240000000000009e+01 9.679343668843448395e+05
1.218800000000000061e+01 9.585219930929357652e+05
1.222349999999999959e+01 9.411450578023856506e+05
1.225900000000000034e+01 9.261955688077714294e+05
1.229460000000000086e+01 9.194169587484903168e+05
1.233009999999999984e+01 9.166745707383354893e+05
1.236560000000000059e+01 9.109507390914346324e+05
1.240119999999999933e+01 9.018439712725869613e+05
1.243670000000000009e+01 8.977325422160956077e+05
1.247220000000000084e+01 9.042890888711912557e+05
1.250779999999999959e+01 9.207777746365892235e+05
1.254330000000000034e+01 9.421601404016028391e+05
1.257879999999999932e+01 9.662960765892679337e+05
1.261439999999999984e+01 9.942677279747325229e+05
1.264990000000000059e+01 1.024689443369415472e+06
1.268539999999999957e+01 1.057771177708485862e+06
1.272100000000000009e+01 1.085612365839083446e+06
1.275650000000000084e+01 1.091462206542468630e+06
1.279199999999999982e+01 1.071844631473485148e+06
1.282760000000000034e+01 1.045505974677892285e+06
1.286309999999999931e+01 1.031995593760869815e+06
1.289860000000000007e+01 1.031588971995020751e+06
1.293420000000000059e+01 1.034268579563954496e+06
1.296969999999999956e+01 1.039850579379592440e+06
1.300520000000000032e+01 1.057548348787211115e+06
1.304080000000000084e+01 1.090217296417523641e+06
1.307629999999999981e+01 1.124327129338137805e+06
1.311180000000000057e+01 1.150580982322837925e+06
1.314739999999999931e+01 1.181639611741907895e+06
1.318290000000000006e+01 1.224353568912958028e+06
1.321840000000000082e+01 1.256042005008772016e+06
1.325399999999999956e+01 1.255736683088782243e+06
1.328950000000000031e+01 1.238815907272018958e+06
1.332499999999999929e+01 1.237346983440095093e+06
1.336059999999999981e+01 1.261336425117378822e+06
1.339610000000000056e+01 1.298471323317695642e+06
1.343159999999999954e+01 1.336602185162743321e+06
1.346720000000000006e+01 1.370724120748721762e+06
1.350270000000000081e+01 1.388585707034402993e+06
1.353819999999999979e+01 1.381788812386059435e+06
1.357380000000000031e+01 1.365609609022515593e+06
1.360929999999999929e+01 1.362267980793471448e+06
1.364480000000000004e+01 1.377945645244685700e+06
1.368040000000000056e+01 1.405818577357159229e+06
1.371589999999999954e+01 1.449163637796973577e+06
1.375140000000000029e+01 1.520054874189574504e+06
1.378700000000000081e+01 1.600829101033484796e+06
1.382249999999999979e+01 1.653440439467182849e+06
1.385800000000000054e+01 1.669991003952608677e+06
1.389359999999999928e+01 1.666808873005220667e+06
1.392910000000000004e+01 1.664155105986650335e+06
1.396460000000000079e+01 1.679588640573624056e+06
1.400019999999999953e+01 1.709168916144370101e+06
1.403570000000000029e+01 1.722625756193011999e+06
1.407119999999999926e+01 1.693217079955965746e+06
1.410679999999999978e+01 1.630363377493565204e+06
1.414230000000000054e+01 1.572315926681540208e+06
