# energy(eV) alpha
0.000000000000000000e+00 0.000000000000000000e+00
3.330000000000000321e-02 4.257232000357702439e+00
6.660000000000000642e-02 1.698112330213930576e+01
9.990000000000000269e-02 3.835580785761852951e+01
1.332000000000000128e-01 6.855681814806133900e+01
1.665000000000000091e-01 1.078587683414089469e+02
1.998000000000000054e-01 1.566139786183319131e+02
2.331000000000000016e-01 2.152505927245910016e+02
2.664000000000000257e-01 2.842687080178590691e+02
2.997000000000000219e-01 3.646335430107623665e+02
3.331000000000000072e-01 4.572504543496863789e+02
3.664000000000000035e-01 5.627019590165690488e+02
3.996999999999999997e-01 6.820010236023748575e+02
4.329999999999999960e-01 8.175047736796622075e+02
4.662999999999999923e-01 9.705282302274467838e+02
4.995999999999999885e-01 1.143399133093074170e+03
5.329000000000000403e-01 1.338020981341867810e+03
5.662000000000000366e-01 1.558948044194025442e+03
5.995000000000000329e-01 1.809081843241662000e+03
6.328000000000000291e-01 2.094258832042377435e+03
6.661000000000000254e-01 2.420126515278518582e+03
6.994000000000000217e-01 2.796749390886580841e+03
7.327000000000000179e-01 3.233851351501004046e+03
7.660000000000000142e-01 3.747597241864856187e+03
7.993000000000000105e-01 4.359624036650558992e+03
8.326000000000000068e-01 5.099444297167588047e+03
8.659000000000000030e-01 6.011641673211727721e+03
8.991999999999999993e-01 7.162257203945642686e+03
9.324999999999999956e-01 8.657840511655806040e+03
9.658999999999999808e-01 1.065922688782337354e+04
9.991999999999999771e-01 1.340868355127256473e+04
1.032499999999999973e+00 1.720234099611798956e+04
1.065800000000000081e+00 2.213989343971394919e+04
1.099099999999999966e+00 2.749774482888016064e+04
1.132400000000000073e+00 3.157453697292324432e+04
1.165699999999999958e+00 3.340042106605982553e+04
1.199000000000000066e+00 3.433123019558666419e+04
1.232299999999999951e+00 3.669058702723468741e+04
1.265600000000000058e+00 4.215248179141074070e+04
1.298899999999999944e+00 5.180184423581647570e+04
1.332200000000000051e+00 6.598731229673048074e+04
1.365499999999999936e+00 8.255980494041700149e+04
1.398800000000000043e+00 9.573502335608132125e+04
1.432099999999999929e+00 1.004687064338410273e+05
1.465400000000000036e+00 9.794857905934247538e+04
1.498699999999999921e+00 9.289184804233773320e+04
1.532000000000000028e+00 8.964476429959395318e+04
1.565299999999999914e+00 8.967571509027866705e+04
1.598600000000000021e+00 9.278474957633631129e+04
1.631999999999999895e+00 1.007391289546560729e+05
1.665300000000000002e+00 1.155224901796849881e+05
1.698600000000000110e+00 1.359785998350961308e+05
1.731899999999999995e+00 1.578049731975903851e+05
1.765200000000000102e+00 1.777766341717240575e+05
1.798499999999999988e+00 1.944941571816087526e+05
1.831800000000000095e+00 2.051328070852358651e+05
1.865099999999999980e+00 2.099039952839645848e+05
1.898400000000000087e+00 2.136411245562766562e+05
1.931699999999999973e+00 2.181729130842126324e+05
1.965000000000000080e+00 2.226373145311510307e+05
1.998299999999999965e+00 2.258685838201428414e+05
2.031600000000000072e+00 2.248616478985553258e+05
2.064900000000000180e+00 2.179757434779070318e+05
2.098199999999999843e+00 2.112574763571695948e+05
2.131499999999999950e+00 2.142069541746549367e+05
2.164800000000000058e+00 2.307952528596621123e+05
2.198100000000000165e+00 2.552508616439844482e+05
2.231399999999999828e+00 2.737584828502157470e+05
2.264800000000000146e+00 2.766156407032551942e+05
2.298099999999999810e+00 2.680786927457175916e+05
2.331399999999999917e+00 2.605222750000758970e+05
2.364700000000000024e+00 2.580961336509951798e+05
2.398000000000000131e+00 2.531832351347274380e+05
2.431299999999999795e+00 2.406079010752358008e+05
2.464599999999999902e+00 2.248132064929842600e+05
2.497900000000000009e+00 2.143459238110935257e+05
2.531200000000000117e+00 2.146584226086735143e+05
2.564499999999999780e+00 2.248967518315322523e+05
2.597799999999999887e+00 2.371404741854846652e+05
2.631099999999999994e+00 2.411081391380878922e+05
2.664400000000000102e+00 2.339480255887900712e+05
2.697700000000000209e+00 2.211492196941377479e+05
2.730999999999999872e+00 2.095422953732647002e+05
2.764299999999999979e+00 2.029306475628578337e+05
2.797600000000000087e+00 2.014865229534461105e+05
2.830900000000000194e+00 2.029075026775563310e+05
2.864199999999999857e+00 2.046315831479743938e+05
2.897600000000000176e+00 2.059728351885391749e+05
2.930899999999999839e+00 2.085277220786388207e+05
2.964199999999999946e+00 2.137412766917019035e+05
2.997500000000000053e+00 2.214222106158602401e+05
3.030800000000000161e+00 2.310652642908268899e+05
3.064099999999999824e+00 2.416193294950697455e+05
3.097399999999999931e+00 2.516651100293053023e+05
3.130700000000000038e+00 2.624954393836096278e+05
3.164000000000000146e+00 2.758192024250558461e+05
3.197299999999999809e+00 2.910573547340999939e+05
3.230599999999999916e+00 3.064273783898948459e+05
3.263900000000000023e+00 3.207391988476551487e+05
3.297200000000000131e+00 3.333387057221919531e+05
3.330499999999999794e+00 3.438337905240100808e+05
3.363799999999999901e+00 3.527509402154664858e+05
3.397100000000000009e+00 3.617607261252728058e+05
3.430400000000000116e+00 3.724768847120406572e+05
3.463699999999999779e+00 3.855717011007357505e+05
3.496999999999999886e+00 4.003476586837572977e+05
3.530400000000000205e+00 4.150322102992268046e+05
3.563699999999999868e+00 4.278196255127783515e+05
3.596999999999999975e+00 4.373823508909304510e+05
3.630300000000000082e+00 4.434015564972282154e+05
3.663600000000000190e+00 4.462475328697560471e+05
3.696899999999999853e+00 4.463322264010274084e+05
3.730199999999999960e+00 4.447696363362585544e+05
3.763500000000000068e+00 4.428768382951012463e+05
3.796800000000000175e+00 4.402969351450513932e+05
3.830099999999999838e+00 4.358263254356101970e+05
3.863399999999999945e+00 4.285456035477374098e+05
3.896700000000000053e+00 4.182415614448668784e+05
3.930000000000000160e+00 4.060792449377958546e+05
3.963299999999999823e+00 3.939478745717626880e+05
3.996599999999999930e+00 3.832403475587652647e+05
4.029899999999999594e+00 3.743373644662397564e+05
4.063200000000000145e+00 3.670268231575583341e+05
4.096499999999999808e+00 3.619325393424918293e+05
4.129800000000000360e+00 3.593152899947450496e+05
4.163100000000000023e+00 3.577231036711971392e+05
4.196500000000000341e+00 3.549314016002314165e+05
4.229800000000000004e+00 3.500562100061335950e+05
4.263099999999999667e+00 3.440910842521826271e+05
4.296400000000000219e+00 3.381273295876476332e+05
4.329699999999999882e+00 3.325351006765127531e+05
4.363000000000000433e+00 3.274763976602722541e+05
4.396300000000000097e+00 3.235160137376097846e+05
4.429599999999999760e+00 3.216448267890009447e+05
4.462900000000000311e+00 3.227898008489859058e+05
4.496199999999999974e+00 3.275968453998677433e+05
4.529499999999999638e+00 3.366649861779188504e+05
4.562800000000000189e+00 3.498932850274611847e+05
4.596099999999999852e+00 3.662456949643751141e+05
4.629400000000000404e+00 3.844426243668195093e+05
4.662700000000000067e+00 4.025123812284373562e+05
4.695999999999999730e+00 4.187993345071376534e+05
4.729300000000000281e+00 4.334755464619370759e+05
4.762599999999999945e+00 4.470102916219046456e+05
4.795899999999999608e+00 4.581826417369786068e+05
4.829299999999999926e+00 4.651856168095527682e+05
4.862599999999999589e+00 4.675408481426008511e+05
4.895900000000000141e+00 4.665869032915895805e+05
4.929199999999999804e+00 4.642589023567402037e+05
4.962500000000000355e+00 4.616929078133251169e+05
4.995800000000000018e+00 4.591052810527307447e+05
5.029099999999999682e+00 4.565915185385657824e+05
5.062400000000000233e+00 4.546649357041756739e+05
5.095699999999999896e+00 4.537978898753465037e+05
5.128999999999999559e+00 4.528484706816342659e+05
5.162300000000000111e+00 4.497965315707668778e+05
5.195599999999999774e+00 4.447512549138520844e+05
5.228900000000000325e+00 4.393453890691504930e+05
5.262199999999999989e+00 4.343462941390616470e+05
5.295499999999999652e+00 4.296711882917096955e+05
5.328800000000000203e+00 4.251296979196167085e+05
5.362099999999999866e+00 4.207568499630175065e+05
5.395400000000000418e+00 4.164532064397894428e+05
5.428700000000000081e+00 4.118681840127430041e+05
5.462100000000000399e+00 4.070956159028633265e+05
5.495400000000000063e+00 4.027395531750273076e+05
5.528699999999999726e+00 3.990020619534659199e+05
5.562000000000000277e+00 3.957135010813312256e+05
5.595299999999999940e+00 3.931810552286417806e+05
5.628599999999999604e+00 3.906755247162341839e+05
5.661900000000000155e+00 3.859890381162235863e+05
5.695199999999999818e+00 3.792794892486252356e+05
5.728500000000000369e+00 3.737477899915170274e+05
5.761800000000000033e+00 3.720439194130315445e+05
5.795099999999999696e+00 3.744953049176968052e+05
5.828400000000000247e+00 3.798512341124826926e+05
5.861699999999999910e+00 3.870862204949606094e+05
5.894999999999999574e+00 3.961401219295792980e+05
5.928300000000000125e+00 4.071656322877882631e+05
5.961599999999999788e+00 4.202923110791802756e+05
5.994900000000000340e+00 4.360513724306885269e+05
6.028200000000000003e+00 4.550026180056622252e+05
6.061499999999999666e+00 4.768649304784178385e+05
6.094800000000000217e+00 5.007042817820699420e+05
6.128199999999999648e+00 5.256232883382053114e+05
6.161500000000000199e+00 5.503083932471497683e+05
6.194799999999999862e+00 5.729897580724569270e+05
6.228100000000000414e+00 5.924797623806248885e+05
6.261400000000000077e+00 6.095027394011231372e+05
6.294699999999999740e+00 6.263886175284177298e+05
6.328000000000000291e+00 6.443934769085751614e+05
6.361299999999999955e+00 6.628508129873638973e+05
6.394599999999999618e+00 6.801041274955563713e+05
6.427900000000000169e+00 6.950673975390783744e+05
6.461199999999999832e+00 7.074086639359976398e+05
6.494500000000000384e+00 7.177208156929177931e+05
6.527800000000000047e+00 7.277154433579185279e+05
6.561099999999999710e+00 7.387854965679482557e+05
6.594400000000000261e+00 7.518071106808044715e+05
6.627699999999999925e+00 7.658408096299346071e+05
6.660999999999999588e+00 7.784241715116940904e+05
6.694300000000000139e+00 7.873837870053220540e+05
6.727599999999999802e+00 7.918649536430805456e+05
6.761000000000000121e+00 7.930190444708830910e+05
6.794299999999999784e+00 7.930295480809878791e+05
6.827600000000000335e+00 7.931908920778537868e+05
6.860899999999999999e+00 7.939197385372348363e+05
6.894199999999999662e+00 7.956905211651532445e+05
6.927500000000000213e+00 7.988546710474699503e+05
6.960799999999999876e+00 8.027170668079047464e+05
6.994100000000000428e+00 8.059158751829848625e+05
7.027400000000000091e+00 8.084857520001378143e+05
7.060699999999999754e+00 8.120730133732561953e+05
7.094000000000000306e+00 8.190414216827277560e+05
7.127299999999999969e+00 8.299082190990624949e+05
7.160599999999999632e+00 8.424061899691828294e+05
7.193900000000000183e+00 8.540594426542385481e+05
7.227199999999999847e+00 8.643794279896101216e+05
7.260500000000000398e+00 8.740251275626433780e+05
7.293800000000000061e+00 8.828907558872007066e+05
7.327099999999999724e+00 8.906068266618455527e+05
7.360400000000000276e+00 8.976287244171234779e+05
7.393799999999999706e+00 9.044493135956169572e+05
7.427100000000000257e+00 9.106569060554651078e+05
7.460399999999999920e+00 9.155038509107650025e+05
7.493699999999999584e+00 9.192501505130534060e+05
7.527000000000000135e+00 9.229809237683332758e+05
7.560299999999999798e+00 9.274200485015561571e+05
7.593600000000000350e+00 9.326608054035208188e+05
7.626900000000000013e+00 9.380053713049771031e+05
7.660199999999999676e+00 9.418534337784086820e+05
7.693500000000000227e+00 9.432682018134103855e+05
7.726799999999999891e+00 9.429156572853027610e+05
7.760100000000000442e+00 9.429803399393109139e+05
7.793400000000000105e+00 9.450186584177578334e+05
7.826699999999999768e+00 9.482248363398931688e+05
7.860000000000000320e+00 9.517938925472168485e+05
7.893299999999999983e+00 9.555549469701870112e+05
7.926599999999999646e+00 9.587942674628236564e+05
7.959900000000000198e+00 9.606619347152735572e+05
7.993199999999999861e+00 9.606602088578640250e+05
8.026600000000000179e+00 9.591378758829013677e+05
8.059900000000000730e+00 9.570976771456061397e+05
8.093199999999999505e+00 9.552201963464106666e+05
8.126500000000000057e+00 9.537227408749631140e+05
8.159800000000000608e+00 9.531919897915027104e+05
8.193099999999999383e+00 9.540407804771047086e+05
8.226399999999999935e+00 9.562115038525895216e+05
8.259700000000000486e+00 9.595333233155594207e+05
8.292999999999999261e+00 9.638666909392994130e+05
8.326299999999999812e+00 9.694617362187549006e+05
8.359600000000000364e+00 9.771327467294263188e+05
8.392899999999999139e+00 9.870255994085458806e+05
8.426199999999999690e+00 9.980317018772173906e+05
8.459500000000000242e+00 1.008580297011640505e+06
8.492800000000000793e+00 1.017625606640866492e+06
8.526099999999999568e+00 1.024341171649242635e+06
8.559400000000000119e+00 1.028213262208721135e+06
8.592700000000000671e+00 1.028977993576277513e+06
8.625999999999999446e+00 1.026375837512032944e+06
8.659299999999999997e+00 1.021516380914467503e+06
8.692700000000000315e+00 1.016484814263617038e+06
8.726000000000000867e+00 1.012537425292323111e+06
8.759299999999999642e+00 1.009890200510221068e+06
8.792600000000000193e+00 1.008448429791134316e+06
8.825900000000000745e+00 1.008106346540509490e+06
8.859199999999999520e+00 1.009037119883572450e+06
8.892500000000000071e+00 1.011394880779976957e+06
8.925800000000000622e+00 1.015443483335631550e+06
8.959099999999999397e+00 1.020691302575197071e+06
8.992399999999999949e+00 1.025966189645798295e+06
9.025700000000000500e+00 1.030816214629635098e+06
9.058999999999999275e+00 1.035528164533972507e+06
9.092299999999999827e+00 1.040392826579028741e+06
9.125600000000000378e+00 1.045136281230072374e+06
9.158899999999999153e+00 1.048790020654588472e+06
9.192199999999999704e+00 1.050327554429039359e+06
9.225500000000000256e+00 1.049720303246712545e+06
9.258800000000000807e+00 1.047696079307055101e+06
9.292099999999999582e+00 1.044628882269535214e+06
9.325499999999999901e+00 1.040350287309504231e+06
9.358800000000000452e+00 1.034970420201275847e+06
9.392099999999999227e+00 1.029155458593119401e+06
9.425399999999999778e+00 1.023468511972718406e+06
9.458700000000000330e+00 1.018335943626207067e+06
9.492000000000000881e+00 1.013728309465041035e+06
9.525299999999999656e+00 1.009640368869055645e+06
9.558600000000000207e+00 1.005914297103879973e+06
9.591900000000000759e+00 1.001918027339150547e+06
9.625199999999999534e+00 9.967904003563349834e+05
9.658500000000000085e+00 9.909758468185915845e+05
9.691800000000000637e+00 9.861519443476593588e+05
9.725099999999999412e+00 9.833612623675005743e+05
9.758399999999999963e+00 9.824194804661370581e+05
9.791700000000000514e+00 9.823997133832419058e+05
9.824999999999999289e+00 9.816828834950772580e+05
9.858299999999999841e+00 9.793384186145884451e+05
9.891600000000000392e+00 9.755158409495163942e+05
9.924899999999999167e+00 9.702607527525468031e+05
9.958299999999999486e+00 9.633865180687108077e+05
9.991600000000000037e+00 9.556129597401712090e+05
1.002490000000000059e+01 9.484910555755629903e+05
1.005819999999999936e+01 9.430465661378862569e+05
1.009149999999999991e+01 9.391005017912155017e+05
1.012480000000000047e+01 9.359379288773977896e+05
1.015809999999999924e+01 9.334317837570138508e+05
1.019139999999999979e+01 9.315346308546129148e+05
1.022470000000000034e+01 9.298935290124271996e+05
1.025799999999999912e+01 9.285287051564932335e+05
1.029129999999999967e+01 9.274665364356053760e+05
1.032460000000000022e+01 9.260341149822388543e+05
1.035790000000000077e+01 9.235432896528710844e+05
1.039119999999999955e+01 9.205759451895924285e+05
1.042450000000000010e+01 9.176020464393914444e+05
1.045780000000000065e+01 9.139395698120251764e+05
1.049109999999999943e+01 9.091100890123033896e+05
1.052439999999999998e+01 9.030896603995286860e+05
1.055770000000000053e+01 8.955048405835052254e+05
1.059110000000000085e+01 8.862603453129176050e+05
1.062439999999999962e+01 8.759741142493429361e+05
1.065770000000000017e+01 8.657508575678938068e+05
1.069100000000000072e+01 8.571526121109371306e+05
1.072429999999999950e+01 8.511866886992040090e+05
1.075760000000000005e+01 8.475694781021644594e+05
1.079090000000000060e+01 8.448388878155354178e+05
1.082419999999999938e+01 8.414044699318158673e+05
1.085749999999999993e+01 8.368639308423874900e+05
1.089080000000000048e+01 8.314718096385984682e+05
1.092409999999999926e+01 8.253854740906296065e+05
1.095739999999999981e+01 8.184006430965755135e+05
1.099070000000000036e+01 8.098875740268697264e+05
1.102399999999999913e+01 7.995116915416934062e+05
1.105729999999999968e+01 7.877932771364500513e+05
1.109060000000000024e+01 7.760708054215260781e+05
1.112390000000000079e+01 7.657076924574804725e+05
1.115719999999999956e+01 7.572911900031364057e+05
1.119050000000000011e+01 7.510811487901827786e+05
1.122380000000000067e+01 7.471086867946988204e+05
1.125719999999999921e+01 7.447852325735785998e+05
1.129049999999999976e+01 7.428831383240233408e+05
1.132380000000000031e+01 7.405899970906261588e+05
1.135710000000000086e+01 7.381246762133103330e+05
1.139039999999999964e+01 7.363089834706319962e+05
1.142370000000000019e+01 7.356833193103920203e+05
1.145700000000000074e+01 7.358792947705117986e+05
1.149029999999999951e+01 7.363499289017842384e+05
1.152360000000000007e+01 7.367725843352371594e+05
1.155690000000000062e+01 7.370310540228656027e+05
1.159019999999999939e+01 7.369598723446090007e+05
1.162349999999999994e+01 7.367075247832611203e+05
1.165680000000000049e+01 7.365421901159529807e+05
1.169009999999999927e+01 7.362106580957034603e+05
1.172339999999999982e+01 7.351727596997852670e+05
1.175670000000000037e+01 7.336386224745045183e+05
1.178999999999999915e+01 7.326640673414275516e+05
1.182329999999999970e+01 7.331125351109630428e+05
1.185660000000000025e+01 7.351100114518636838e+05
1.189000000000000057e+01 7.380633534025057452e+05
1.192329999999999934e+01 7.409739358807782410e+05
1.195659999999999989e+01 7.426835546836866997e+05
1.198990000000000045e+01 7.423901917623307090e+05
1.202319999999999922e+01 7.409146482832733309e+05
1.205649999999999977e+01 7.397046604330737609e+05
1.208980000000000032e+01 7.393342370677642757e+05
1.212310000000000088e+01 7.393829279406962451e+05
1.215639999999999965e+01 7.391845352365805302e+05
1.218970000000000020e+01 7.386677724763578735e+05
1.222300000000000075e+01 7.384873876946025994e+05
1.225629999999999953e+01 7.399372457264239201e+05
1.228960000000000008e+01 7.435525374929599930e+05
1.232290000000000063e+01 7.491012977383282268e+05
1.235619999999999941e+01 7.564081113086746773e+05
1.238949999999999996e+01 7.654994389755993616e+05
1.242280000000000051e+01 7.768839587699325057e+05
1.245609999999999928e+01 7.906892897449608427e+05
1.248939999999999984e+01 8.056638073300023098e+05
1.252280000000000015e+01 8.199604844023300102e+05
1.255610000000000070e+01 8.320655947647489375e+05
1.258939999999999948e+01 8.404699826678021345e+05
1.262270000000000003e+01 8.441263564208386233e+05
1.265600000000000058e+01 8.427190028941397322e+05
1.268929999999999936e+01 8.374228144097608747e+05
1.272259999999999991e+01 8.304850760018286528e+05
1.275590000000000046e+01 8.236030239929204108e+05
1.278919999999999924e+01 8.169710576628267299e+05
1.282249999999999979e+01 8.105367975223755930e+05
1.285580000000000034e+01 8.051910428956572432e+05
1.288909999999999911e+01 8.014048370336780790e+05
1.292239999999999966e+01 7.991757320106072584e+05
1.295570000000000022e+01 7.980352295463731280e+05
1.298900000000000077e+01 7.977199723037250806e+05
1.302229999999999954e+01 7.980309623336304212e+05
1.305560000000000009e+01 7.987898177469299408e+05
1.308890000000000065e+01 7.999739722705321619e+05
1.312219999999999942e+01 8.011935736963904928e+05
1.315559999999999974e+01 8.013924546510828659e+05
1.318890000000000029e+01 8.006413181600095704e+05
1.322220000000000084e+01 8.000327198820654303e+05
1.325549999999999962e+01 8.002496766900754301e+05
