# energy(eV) alpha
0.000000000000000000e+00 0.000000000000000000e+00
3.590000000000000135e-02 5.313797741196686353e-01
7.180000000000000271e-02 2.250440002644561233e+00
1.077000000000000041e-01 4.875629489717606013e+00
1.436000000000000054e-01 8.750277525159116720e+00
1.796000000000000096e-01 1.375645234467520872e+01
2.154999999999999971e-01 1.987931423045611012e+01
2.514000000000000123e-01 2.712404957661180660e+01
2.872999999999999998e-01 3.548961456196501985e+01
3.231999999999999873e-01 4.497455872086820960e+01
3.590999999999999748e-01 5.557685288595536122e+01
3.950000000000000178e-01 6.763811175795899544e+01
4.309000000000000052e-01 8.012658210486419819e+01
4.668999999999999817e-01 9.449589552431606876e+01
5.028000000000000247e-01 1.100181631956466077e+02
5.386999999999999567e-01 1.271758713029404220e+02
5.745999999999999996e-01 1.450616419910226966e+02
6.105000000000000426e-01 1.641107807580916074e+02
6.463999999999999746e-01 1.848782198160555765e+02
6.823000000000000176e-01 2.068623652980443524e+02
7.181999999999999496e-01 2.294374907477832437e+02
7.540999999999999925e-01 2.551172552934725672e+02
7.901000000000000245e-01 2.807931904258164764e+02
8.259999999999999565e-01 3.090597612841888804e+02
8.618999999999999995e-01 3.378984732293029651e+02
8.978000000000000425e-01 3.687604393289836935e+02
9.336999999999999744e-01 4.009276412075747089e+02
9.696000000000000174e-01 4.352258646615593420e+02
1.005500000000000060e+00 4.708773438589084321e+02
1.041400000000000103e+00 5.087647302032459606e+02
1.077299999999999924e+00 5.480489881663387450e+02
1.113299999999999956e+00 5.897311194984133635e+02
1.149199999999999999e+00 6.327979489116470404e+02
1.185100000000000042e+00 6.793216556414395200e+02
1.221000000000000085e+00 7.263444452276444281e+02
1.256899999999999906e+00 7.759047544643179890e+02
1.292799999999999949e+00 8.280831417369554401e+02
1.328699999999999992e+00 8.829600433675635713e+02
1.364600000000000035e+00 9.417625573672648898e+02
1.400600000000000067e+00 9.999640792807164189e+02
1.436500000000000110e+00 1.063331615213633768e+03
1.472399999999999931e+00 1.128439562276925017e+03
1.508299999999999974e+00 1.197814888310746255e+03
1.544200000000000017e+00 1.269013646376173938e+03
1.580100000000000060e+00 1.344667971845985903e+03
1.616000000000000103e+00 1.422206282672386124e+03
1.651899999999999924e+00 1.504385300467461093e+03
1.687799999999999967e+00 1.592777036757424412e+03
1.723799999999999999e+00 1.683351135854001086e+03
1.759700000000000042e+00 1.777364488448195061e+03
1.795600000000000085e+00 1.876469506602662932e+03
1.831499999999999906e+00 1.982331501043917342e+03
1.867399999999999949e+00 2.092017566797685049e+03
1.903299999999999992e+00 2.207182041971230319e+03
1.939200000000000035e+00 2.329523420948252806e+03
1.975100000000000078e+00 2.457621864105342866e+03
2.011099999999999888e+00 2.591702160089037534e+03
2.047000000000000153e+00 2.734987106535350449e+03
2.082899999999999974e+00 2.884421216988490414e+03
2.118799999999999795e+00 3.045308676404870312e+03
2.154700000000000060e+00 3.212650854417702703e+03
2.190599999999999881e+00 3.390109230856382055e+03
2.226500000000000146e+00 3.577896492304982075e+03
2.262399999999999967e+00 3.776171530766726846e+03
2.298299999999999788e+00 3.988857667636092174e+03
2.334299999999999820e+00 4.216404542892943937e+03
2.370200000000000085e+00 4.458803184462592981e+03
2.406099999999999905e+00 4.718371718783074357e+03
2.442000000000000171e+00 4.991547967504723601e+03
2.477899999999999991e+00 5.290257164317363276e+03
2.513799999999999812e+00 5.607067175282966673e+03
2.549700000000000077e+00 5.950164805815608815e+03
2.585599999999999898e+00 6.320048245737600155e+03
2.621500000000000163e+00 6.721110262850040272e+03
2.657500000000000195e+00 7.160201823452498502e+03
2.693400000000000016e+00 7.635258475458334942e+03
2.729299999999999837e+00 8.155282764847932413e+03
2.765200000000000102e+00 8.727043275358570099e+03
2.801099999999999923e+00 9.361741232448894152e+03
2.837000000000000188e+00 1.006410588443792403e+04
2.872900000000000009e+00 1.084538837449740640e+04
2.908799999999999830e+00 1.172332961059343870e+04
2.944799999999999862e+00 1.272059363201744600e+04
2.980700000000000127e+00 1.385416375418873031e+04
3.016599999999999948e+00 1.516180589067821711e+04
3.052500000000000213e+00 1.668534198527241824e+04
3.088400000000000034e+00 1.848378921778567019e+04
3.124299999999999855e+00 2.064444190084428192e+04
3.160200000000000120e+00 2.327990494840148313e+04
3.196099999999999941e+00 2.658118142961148624e+04
3.232000000000000206e+00 3.082761607429860669e+04
3.267999999999999794e+00 3.645993603422686283e+04
3.303900000000000059e+00 4.418152649252929405e+04
3.339799999999999880e+00 5.501223695614884491e+04
3.375700000000000145e+00 6.991500110145953659e+04
3.411599999999999966e+00 8.810158830236931681e+04
3.447499999999999787e+00 1.048198640803560411e+05
3.483400000000000052e+00 1.153615771157586860e+05
3.519299999999999873e+00 1.232870383383910666e+05
3.555200000000000138e+00 1.356063725187529053e+05
3.591200000000000170e+00 1.542981683568596200e+05
3.627099999999999991e+00 1.768969841452500550e+05
3.662999999999999812e+00 2.017325944964770752e+05
3.698900000000000077e+00 2.302996066295249329e+05
3.734799999999999898e+00 2.585953362001590140e+05
3.770700000000000163e+00 2.796525651440889342e+05
3.806599999999999984e+00 2.994318068784247153e+05
3.842499999999999805e+00 3.312713669835415785e+05
3.878499999999999837e+00 3.769789238437194726e+05
3.914400000000000102e+00 4.227991631481709774e+05
3.950299999999999923e+00 4.508959467403693125e+05
3.986200000000000188e+00 4.514811461558664450e+05
4.022100000000000009e+00 4.264042417426066822e+05
4.057999999999999829e+00 3.874795178380337311e+05
4.093899999999999650e+00 3.460719855418365914e+05
4.129800000000000360e+00 3.092798020490505151e+05
4.165700000000000180e+00 2.809351268332150066e+05
4.201699999999999768e+00 2.615467006811227766e+05
4.237599999999999589e+00 2.511163180435274844e+05
4.273500000000000298e+00 2.489443322684785817e+05
4.309400000000000119e+00 2.520491706625152146e+05
4.345299999999999940e+00 2.577996489487361687e+05
4.381199999999999761e+00 2.654916626431316836e+05
4.417099999999999582e+00 2.739085292087561684e+05
4.453000000000000291e+00 2.808339683082791162e+05
4.488999999999999879e+00 2.836553378325484809e+05
4.524899999999999700e+00 2.808681322610105854e+05
4.560800000000000409e+00 2.760583541754808393e+05
4.596700000000000230e+00 2.755619141111674253e+05
4.632600000000000051e+00 2.837161368015753687e+05
4.668499999999999872e+00 3.016217295523507637e+05
4.704399999999999693e+00 3.276598232026027399e+05
4.740300000000000402e+00 3.596605836894682143e+05
4.776200000000000223e+00 3.964645723856686964e+05
4.812199999999999811e+00 4.366395853026164114e+05
4.848099999999999632e+00 4.759565261398850125e+05
4.884000000000000341e+00 5.098836740068389336e+05
4.919900000000000162e+00 5.363397738710101694e+05
4.955799999999999983e+00 5.561017967597715324e+05
4.991699999999999804e+00 5.715411127612025011e+05
5.027599999999999625e+00 5.846139250599535881e+05
5.063500000000000334e+00 5.983886943327760091e+05
5.099400000000000155e+00 6.115376457676630234e+05
5.135399999999999743e+00 6.207554901124907192e+05
5.171299999999999564e+00 6.231000199173383880e+05
5.207200000000000273e+00 6.167532327678973088e+05
5.243100000000000094e+00 6.031981730697014136e+05
5.278999999999999915e+00 5.852103594379043207e+05
5.314899999999999736e+00 5.640836905609972309e+05
5.350799999999999557e+00 5.406995111720405985e+05
5.386700000000000266e+00 5.183058995756189688e+05
5.422699999999999854e+00 4.986590154754287214e+05
5.458599999999999675e+00 4.824666037903624820e+05
5.494500000000000384e+00 4.749189475588306668e+05
5.530400000000000205e+00 4.790360409226487973e+05
5.566300000000000026e+00 4.912018288807730423e+05
5.602199999999999847e+00 5.059782939635006478e+05
5.638099999999999667e+00 5.204081790710000787e+05
5.674000000000000377e+00 5.347828172206009040e+05
5.709900000000000198e+00 5.514754968677791767e+05
5.745899999999999785e+00 5.709514587423256598e+05
5.781799999999999606e+00 5.883314942643014947e+05
5.817700000000000315e+00 5.967093943010468502e+05
5.853600000000000136e+00 5.936195390254058875e+05
5.889499999999999957e+00 5.838597928152632667e+05
5.925399999999999778e+00 5.727769332776877563e+05
5.961299999999999599e+00 5.625341951568663353e+05
5.997200000000000308e+00 5.527360965233315947e+05
6.033199999999999896e+00 5.417323944914147723e+05
6.069099999999999717e+00 5.281454804831910878e+05
6.105000000000000426e+00 5.138829917136541917e+05
6.140900000000000247e+00 5.022100004337197170e+05
6.176800000000000068e+00 4.936042311229968327e+05
6.212699999999999889e+00 4.860900092023389298e+05
6.248599999999999710e+00 4.783001913671469665e+05
6.284500000000000419e+00 4.704791851335010724e+05
6.320400000000000240e+00 4.641236683018133626e+05
6.356399999999999828e+00 4.597307982195740333e+05
6.392299999999999649e+00 4.565470042245642398e+05
6.428200000000000358e+00 4.540521843362288782e+05
6.464100000000000179e+00 4.534207674208174576e+05
6.500000000000000000e+00 4.562622090766610927e+05
6.535899999999999821e+00 4.609653292260512826e+05
6.571799999999999642e+00 4.642752210558674997e+05
6.607700000000000351e+00 4.644102146360907354e+05
6.643600000000000172e+00 4.597467671357329236e+05
6.679599999999999760e+00 4.506679431450531702e+05
6.715499999999999581e+00 4.423815413708476699e+05
6.751400000000000290e+00 4.391211833653855720e+05
6.787300000000000111e+00 4.407608936560777947e+05
6.823199999999999932e+00 4.454648592113300692e+05
6.859099999999999753e+00 4.515352546704286942e+05
6.894999999999999574e+00 4.590916160584510071e+05
6.930900000000000283e+00 4.681121748613255913e+05
6.966899999999999871e+00 4.788767782661030651e+05
7.002799999999999692e+00 4.925201435298566357e+05
7.038700000000000401e+00 5.088413292792883585e+05
7.074600000000000222e+00 5.247108913449669490e+05
7.110500000000000043e+00 5.395787304555069422e+05
7.146399999999999864e+00 5.571363849908261327e+05
7.182299999999999685e+00 5.772388537581305718e+05
7.218200000000000394e+00 5.951530573361284332e+05
7.254100000000000215e+00 6.099914948145104572e+05
7.290099999999999802e+00 6.231547209499276942e+05
7.325999999999999623e+00 6.319789975362819387e+05
7.361900000000000333e+00 6.339714404213079251e+05
7.397800000000000153e+00 6.319228033035113476e+05
7.433699999999999974e+00 6.278635376246147789e+05
7.469599999999999795e+00 6.220355650660494575e+05
7.505499999999999616e+00 6.170368752322978107e+05
7.541400000000000325e+00 6.158407826852905564e+05
7.577300000000000146e+00 6.180901751686038915e+05
7.613299999999999734e+00 6.190523788266723277e+05
7.649200000000000443e+00 6.170895086457185680e+05
7.685100000000000264e+00 6.145940265188271878e+05
7.721000000000000085e+00 6.127232928944064770e+05
7.756899999999999906e+00 6.103345402208475862e+05
7.792799999999999727e+00 6.065616275626687566e+05
7.828700000000000436e+00 6.028274743535157759e+05
7.864600000000000257e+00 5.992915219907176215e+05
7.900599999999999845e+00 5.949725866622590693e+05
7.936499999999999666e+00 5.909241052978548687e+05
7.972400000000000375e+00 5.884046716967901448e+05
8.008300000000000196e+00 5.879066677764256019e+05
8.044200000000000017e+00 5.894528011505417526e+05
8.080099999999999838e+00 5.929378622318264097e+05
8.115999999999999659e+00 5.970656976875790861e+05
8.151899999999999480e+00 6.011765632055136375e+05
8.187799999999999301e+00 6.075901270694753621e+05
8.223800000000000665e+00 6.167487188931076089e+05
8.259700000000000486e+00 6.253119829219114035e+05
8.295600000000000307e+00 6.309712786805150099e+05
8.331500000000000128e+00 6.355805746066202410e+05
8.367399999999999949e+00 6.415377061627232470e+05
8.403299999999999770e+00 6.483181215405245312e+05
8.439199999999999591e+00 6.555597318984500598e+05
8.475099999999999412e+00 6.641295590887414292e+05
8.511100000000000776e+00 6.739253842424235772e+05
8.547000000000000597e+00 6.843941779085303424e+05
8.582900000000000418e+00 6.951814177975937491e+05
8.618800000000000239e+00 7.052470698046118487e+05
8.654700000000000060e+00 7.140119589693433372e+05
8.690599999999999881e+00 7.212966315350291552e+05
8.726499999999999702e+00 7.269417145943109645e+05
8.762399999999999523e+00 7.312211225573820993e+05
8.798299999999999343e+00 7.347581562531678937e+05
8.834300000000000708e+00 7.390667844909403939e+05
8.870200000000000529e+00 7.461015425511606736e+05
8.906100000000000350e+00 7.562331706689291168e+05
8.942000000000000171e+00 7.673943338466400746e+05
8.977899999999999991e+00 7.762969413537124638e+05
9.013799999999999812e+00 7.794035770132911857e+05
9.049699999999999633e+00 7.756610550339256879e+05
9.085599999999999454e+00 7.688853251101740170e+05
9.121499999999999275e+00 7.633219885067760479e+05
9.157500000000000639e+00 7.591853466400905745e+05
9.193400000000000460e+00 7.567227799975060625e+05
9.229300000000000281e+00 7.568607807348286733e+05
9.265200000000000102e+00 7.607623819560634438e+05
9.301099999999999923e+00 7.695132463675949257e+05
9.336999999999999744e+00 7.814481216538047884e+05
9.372899999999999565e+00 7.943795578171818051e+05
9.408799999999999386e+00 8.073830424697975395e+05
9.444800000000000750e+00 8.186032975491767284e+05
9.480700000000000571e+00 8.261853450797295664e+05
9.516600000000000392e+00 8.294415879880944267e+05
9.552500000000000213e+00 8.277909185380355921e+05
9.588400000000000034e+00 8.224515053175027715e+05
9.624299999999999855e+00 8.161541393148384523e+05
9.660199999999999676e+00 8.111325321426484734e+05
9.696099999999999497e+00 8.089833305262466893e+05
9.731999999999999318e+00 8.090284857327317586e+05
9.768000000000000682e+00 8.105238878449629992e+05
9.803900000000000503e+00 8.148616111231442774e+05
9.839800000000000324e+00 8.231796837807982229e+05
9.875700000000000145e+00 8.316570148808509111e+05
9.911599999999999966e+00 8.366793045140502509e+05
9.947499999999999787e+00 8.395074230603737524e+05
9.983399999999999608e+00 8.428503156206600834e+05
1.001929999999999943e+01 8.480140377632087329e+05
1.005530000000000079e+01 8.547371113583839033e+05
1.009120000000000061e+01 8.617173534830459394e+05
1.012710000000000043e+01 8.688965153548306553e+05
1.016300000000000026e+01 8.771537726277138572e+05
1.019890000000000008e+01 8.864445510670681251e+05
1.023479999999999990e+01 8.950847388670563232e+05
1.027069999999999972e+01 9.003168868307922967e+05
1.030659999999999954e+01 9.010344745937566040e+05
1.034249999999999936e+01 8.999443717108689016e+05
1.037850000000000072e+01 9.019550370341647649e+05
1.041440000000000055e+01 9.091620545687249396e+05
1.045030000000000037e+01 9.196387987170035485e+05
1.048620000000000019e+01 9.308846317484966712e+05
1.052210000000000001e+01 9.409514941729647107e+05
1.055799999999999983e+01 9.492475024346850114e+05
1.059389999999999965e+01 9.560455876567290397e+05
1.062979999999999947e+01 9.596713465894281399e+05
1.066569999999999929e+01 9.580534647311929148e+05
1.070170000000000066e+01 9.517257672752832295e+05
1.073760000000000048e+01 9.426444935300650541e+05
1.077350000000000030e+01 9.322121103874070104e+05
1.080940000000000012e+01 9.211628787755792728e+05
1.084529999999999994e+01 9.109143025050205179e+05
1.088119999999999976e+01 9.028342414557518205e+05
1.091709999999999958e+01 8.966661104425471276e+05
1.095299999999999940e+01 8.919589743989910930e+05
1.098900000000000077e+01 8.895576864953563781e+05
1.102490000000000059e+01 8.895790950402279850e+05
1.106080000000000041e+01 8.907915405926371459e+05
1.109670000000000023e+01 8.923029059220701456e+05
1.113260000000000005e+01 8.939345969105516560e+05
1.116849999999999987e+01 8.964477139427120565e+05
1.120439999999999969e+01 8.996503650180961704e+05
1.124029999999999951e+01 9.022956185570189264e+05
1.127619999999999933e+01 9.045524060333264060e+05
1.131220000000000070e+01 9.066832009835391073e+05
1.134810000000000052e+01 9.066163736999400426e+05
1.138400000000000034e+01 9.036729906872981228e+05
1.141990000000000016e+01 9.002137866616018582e+05
1.145579999999999998e+01 8.979178080693769734e+05
1.149169999999999980e+01 8.966109176929637324e+05
1.152759999999999962e+01 8.962171262960025342e+05
1.156349999999999945e+01 8.969176261021432001e+05
1.159939999999999927e+01 8.981930484338131500e+05
1.163540000000000063e+01 8.998994036767447833e+05
1.167130000000000045e+01 9.020376383817760507e+05
1.170720000000000027e+01 9.050771619194921805e+05
1.174310000000000009e+01 9.094424191802910063e+05
1.177899999999999991e+01 9.132003361831371440e+05
1.181489999999999974e+01 9.150059951596328756e+05
1.185079999999999956e+01 9.161259734775845427e+05
1.188669999999999938e+01 9.167688924921455327e+05
1.192270000000000074e+01 9.168843875369178131e+05
1.195860000000000056e+01 9.178518734810341848e+05
1.199450000000000038e+01 9.207778498009578325e+05
1.203040000000000020e+01 9.249822447903169086e+05
1.206630000000000003e+01 9.280129755882909521e+05
1.210219999999999985e+01 9.292065619257034268e+05
1.213809999999999967e+01 9.301850246352332179e+05
1.217399999999999949e+01 9.305410671112722484e+05
1.220989999999999931e+01 9.283317327365755336e+05
1.224590000000000067e+01 9.219899484837279888e+05
1.228180000000000049e+01 9.116019827743180795e+05
1.231770000000000032e+01 9.005428288883175701e+05
1.235360000000000014e+01 8.925233326240858296e+05
1.238949999999999996e+01 8.886759910031126346e+05
1.242539999999999978e+01 8.891146962590706535e+05
1.246129999999999960e+01 8.928676015082286904e+05
1.249719999999999942e+01 8.974904253672468476e+05
1.253320000000000078e+01 9.021689539610726060e+05
1.256910000000000061e+01 9.074110455636620754e+05
1.260500000000000043e+01 9.123667305495721521e+05
1.264090000000000025e+01 9.167061325435350882e+05
1.267680000000000007e+01 9.228577274139031069e+05
1.271269999999999989e+01 9.337562788569063414e+05
1.274859999999999971e+01 9.481114189643095015e+05
1.278449999999999953e+01 9.582320241357897175e+05
1.282039999999999935e+01 9.602768138926982647e+05
1.285640000000000072e+01 9.586098654020900140e+05
1.289230000000000054e+01 9.584037804884042125e+05
1.292820000000000036e+01 9.613204249454215169e+05
1.296410000000000018e+01 9.635089508574833162e+05
1.300000000000000000e+01 9.597028603280781535e+05
1.303589999999999982e+01 9.525643871193259256e+05
1.307179999999999964e+01 9.480303504841176327e+05
1.310769999999999946e+01 9.480209233175606932e+05
1.314359999999999928e+01 9.518603315799136180e+05
1.317960000000000065e+01 9.580238219138981076e+05
1.321550000000000047e+01 9.638089146148922155e+05
1.325140000000000029e+01 9.645886420647874475e+05
1.328730000000000011e+01 9.598787825231541647e+05
1.332319999999999993e+01 9.535292188159604557e+05
1.335909999999999975e+01 9.490961127229204867e+05
1.339499999999999957e+01 9.468906842511910945e+05
1.343089999999999939e+01 9.439846121092314133e+05
1.346690000000000076e+01 9.375120797679419629e+05
1.350280000000000058e+01 9.286172252998166950e+05
1.353870000000000040e+01 9.219960592476146994e+05
1.357460000000000022e+01 9.185764167861402966e+05
1.361050000000000004e+01 9.159187322020761203e+05
1.364639999999999986e+01 9.145840085471827770e+05
1.368229999999999968e+01 9.155527273233393207e+05
1.371819999999999951e+01 9.171710588773918571e+05
1.375409999999999933e+01 9.185209304255867610e+05
1.379010000000000069e+01 9.213540792746600928e+05
1.382600000000000051e+01 9.276919542687356006e+05
1.386190000000000033e+01 9.387411915113041177e+05
1.389780000000000015e+01 9.528740024996674620e+05
1.393369999999999997e+01 9.673263965095099993e+05
1.396959999999999980e+01 9.819739577117933659e+05
1.400549999999999962e+01 9.962490215926882811e+05
1.404139999999999944e+01 1.008958893021260272e+06
1.407740000000000080e+01 1.020902035284896847e+06
1.411330000000000062e+01 1.033731642126495251e+06
1.414920000000000044e+01 1.048632302330429433e+06
1.418510000000000026e+01 1.063765059464437654e+06
1.422100000000000009e+01 1.074535046593512408e+06
1.425689999999999991e+01 1.078272723150340607e+06
1.429279999999999973e+01 1.077199477309837705e+06
