# energy(eV) alpha
0.000000000000000000e+00 0.000000000000000000e+00
3.549999999999999684e-02 4.613955451840122679e-01
7.090000000000000469e-02 1.842908541914359377e+00
1.063999999999999946e-01 4.148263974716009272e+00
1.418999999999999984e-01 7.375756006797965725e+00
1.774000000000000021e-01 1.168955061333063838e+01
2.127999999999999892e-01 1.658737898163259317e+01
2.482999999999999929e-01 2.257654968947085194e+01
2.837999999999999967e-01 2.948522170696710987e+01
3.191999999999999837e-01 3.730059322868760319e+01
3.547000000000000153e-01 4.670110104142517571e+01
3.901999999999999913e-01 5.642558348365166410e+01
4.255999999999999783e-01 6.744278846718671616e+01
4.611000000000000099e-01 7.945229698404044427e+01
4.965999999999999859e-01 9.289798311800220176e+01
5.321000000000000174e-01 1.063987266989822302e+02
5.675000000000000044e-01 1.218348596061002240e+02
6.029999999999999805e-01 1.383247665362134171e+02
6.384999999999999565e-01 1.546670750143786393e+02
6.739000000000000545e-01 1.737518345237436677e+02
7.094000000000000306e-01 1.932956342263254612e+02
7.449000000000000066e-01 2.145506965732941751e+02
7.803999999999999826e-01 2.368897786307068998e+02
8.157999999999999696e-01 2.595236494889364849e+02
8.512999999999999456e-01 2.855528577063595321e+02
8.868000000000000327e-01 3.119675875411783750e+02
9.222000000000000197e-01 3.394740999783244888e+02
9.576999999999999957e-01 3.690250372781018768e+02
9.931999999999999718e-01 3.997580603667404375e+02
1.028599999999999959e+00 4.316271227367627148e+02
1.064100000000000046e+00 4.656893185989350741e+02
1.099599999999999911e+00 5.019845454626860715e+02
1.135099999999999998e+00 5.395656577590928009e+02
1.170500000000000096e+00 5.794500027769499866e+02
1.205999999999999961e+00 6.207074691902074619e+02
1.241500000000000048e+00 6.655549680858368902e+02
1.276899999999999924e+00 7.106203341239141764e+02
1.312400000000000011e+00 7.583057619489901526e+02
1.347900000000000098e+00 8.098610184927127875e+02
1.383399999999999963e+00 8.629363526843396812e+02
1.418800000000000061e+00 9.187555685620427539e+02
1.454299999999999926e+00 9.788406698468943432e+02
1.489800000000000013e+00 1.040585071880884470e+03
1.525199999999999889e+00 1.105295585199794004e+03
1.560699999999999976e+00 1.174584015667382346e+03
1.596200000000000063e+00 1.247108692627857636e+03
1.631599999999999939e+00 1.324323503728439391e+03
1.667100000000000026e+00 1.406545630037031970e+03
1.702599999999999891e+00 1.490780498661539241e+03
1.738099999999999978e+00 1.581685155452607432e+03
1.773500000000000076e+00 1.677807281554722749e+03
1.808999999999999941e+00 1.781077458031665401e+03
1.844500000000000028e+00 1.888349599641745044e+03
1.879899999999999904e+00 2.004551986311211976e+03
1.915399999999999991e+00 2.128529060734642371e+03
1.950900000000000079e+00 2.258611383024620409e+03
1.986399999999999944e+00 2.400187655155255925e+03
2.021799999999999820e+00 2.549911635022152495e+03
2.057300000000000129e+00 2.711815032280763262e+03
2.092799999999999994e+00 2.886075367659807853e+03
2.128200000000000092e+00 3.072910014232209960e+03
2.163699999999999957e+00 3.276582161385904328e+03
2.199199999999999822e+00 3.497424890334479642e+03
2.234599999999999920e+00 3.739516620556260477e+03
2.270099999999999785e+00 4.005610465753874450e+03
2.305600000000000094e+00 4.298119801430076222e+03
2.341099999999999959e+00 4.619584291496084916e+03
2.376500000000000057e+00 4.978482166677253190e+03
2.411999999999999922e+00 5.380059065994238154e+03
2.447499999999999787e+00 5.833229263686110244e+03
2.482899999999999885e+00 6.347006949891132535e+03
2.518400000000000194e+00 6.937671202179742977e+03
2.553900000000000059e+00 7.619010189388362960e+03
2.589399999999999924e+00 8.417951795331417088e+03
2.624800000000000022e+00 9.368153850357059127e+03
2.660299999999999887e+00 1.051331697785291180e+04
2.695800000000000196e+00 1.192503149247515648e+04
2.731199999999999850e+00 1.369509913075698023e+04
2.766700000000000159e+00 1.598375035165796544e+04
2.802200000000000024e+00 1.901971012385203721e+04
2.837600000000000122e+00 2.318505765220262401e+04
2.873099999999999987e+00 2.905698262838804294e+04
2.908599999999999852e+00 3.738872938832659565e+04
2.944100000000000161e+00 4.859970167121079430e+04
2.979499999999999815e+00 6.161151098081281816e+04
3.015000000000000124e+00 7.399642827041070268e+04
3.050499999999999989e+00 8.475240949964353058e+04
3.085900000000000087e+00 9.425626245007848775e+04
3.121399999999999952e+00 1.005359299625752174e+05
3.156899999999999817e+00 1.015915072232319362e+05
3.192400000000000126e+00 1.010769082578837260e+05
3.227799999999999780e+00 1.033108707109554234e+05
3.263300000000000090e+00 1.083707562939308700e+05
3.298799999999999955e+00 1.139681160205482884e+05
3.334200000000000053e+00 1.182654025053024670e+05
3.369699999999999918e+00 1.204342749311759399e+05
3.405199999999999783e+00 1.202072101627359953e+05
3.440700000000000092e+00 1.183393855334707914e+05
3.476100000000000190e+00 1.169786135618105764e+05
3.511600000000000055e+00 1.176052545522676810e+05
3.547099999999999920e+00 1.189810774817807542e+05
3.582500000000000018e+00 1.186680488451714918e+05
3.617999999999999883e+00 1.165072007403547759e+05
3.653500000000000192e+00 1.144052748454457469e+05
3.688899999999999846e+00 1.138526979015577235e+05
3.724400000000000155e+00 1.155200867531200056e+05
3.759900000000000020e+00 1.192116409231424768e+05
3.795399999999999885e+00 1.246540249171974574e+05
3.830799999999999983e+00 1.322958085206009855e+05
3.866299999999999848e+00 1.427364850737504894e+05
3.901800000000000157e+00 1.557775696478649043e+05
3.937199999999999811e+00 1.703753483071750961e+05
3.972700000000000120e+00 1.843694560165368894e+05
4.008200000000000429e+00 1.947931943175597116e+05
4.043700000000000294e+00 2.010988641366449592e+05
4.079100000000000392e+00 2.048645656782076694e+05
4.114600000000000257e+00 2.073277945953779563e+05
4.150100000000000122e+00 2.088182649479272077e+05
4.185500000000000220e+00 2.084218909385482257e+05
4.221000000000000085e+00 2.049799403653812187e+05
4.256499999999999950e+00 1.994883615606790117e+05
4.291900000000000048e+00 1.944100058331493929e+05
4.327399999999999913e+00 1.923785450196964666e+05
4.362899999999999778e+00 1.943709227141553711e+05
4.398399999999999643e+00 1.978128039087992511e+05
4.433799999999999741e+00 1.997374153666893835e+05
4.469299999999999606e+00 2.012582101037952816e+05
4.504800000000000360e+00 2.041511940771747904e+05
4.540199999999999569e+00 2.089488679977631837e+05
4.575700000000000323e+00 2.162477768174804223e+05
4.611200000000000188e+00 2.259799329799697443e+05
4.646700000000000053e+00 2.361918619298374397e+05
4.682100000000000151e+00 2.442302263401160890e+05
4.717600000000000016e+00 2.501628512771335081e+05
4.753099999999999881e+00 2.565269348141019582e+05
4.788499999999999979e+00 2.653209987033967627e+05
4.823999999999999844e+00 2.755901799741471186e+05
4.859499999999999709e+00 2.841081999508441659e+05
4.894899999999999807e+00 2.893196476499112323e+05
4.930399999999999672e+00 2.935187546036759159e+05
4.965900000000000425e+00 2.982805305702878977e+05
5.001400000000000290e+00 3.018707184407845489e+05
5.036800000000000388e+00 3.032918888968525571e+05
5.072300000000000253e+00 3.046977887532869354e+05
5.107800000000000118e+00 3.082033351096236729e+05
5.143200000000000216e+00 3.134013241111102398e+05
5.178700000000000081e+00 3.184332410169485374e+05
5.214199999999999946e+00 3.221286051047963556e+05
5.249699999999999811e+00 3.245245914913014858e+05
5.285099999999999909e+00 3.262172257899416727e+05
5.320599999999999774e+00 3.281293018057771842e+05
5.356099999999999639e+00 3.311462846455544350e+05
5.391499999999999737e+00 3.363716531337975757e+05
5.426999999999999602e+00 3.449437055502145085e+05
5.462500000000000355e+00 3.568545896873518941e+05
5.497899999999999565e+00 3.715138606743906857e+05
5.533400000000000318e+00 3.889273044661193853e+05
5.568900000000000183e+00 4.081120872306724195e+05
5.604400000000000048e+00 4.264516461625997908e+05
5.639800000000000146e+00 4.420408354919614503e+05
5.675300000000000011e+00 4.541240673946827883e+05
5.710799999999999876e+00 4.613539064605872845e+05
5.746199999999999974e+00 4.626446352463549701e+05
5.781699999999999839e+00 4.589863182990681962e+05
5.817199999999999704e+00 4.521638178266565083e+05
5.852699999999999569e+00 4.436385775636517210e+05
5.888099999999999667e+00 4.352296909124910599e+05
5.923600000000000421e+00 4.290061145886995364e+05
5.959100000000000286e+00 4.256730350296525867e+05
5.994500000000000384e+00 4.245695978947571130e+05
6.030000000000000249e+00 4.249278549890125287e+05
6.065500000000000114e+00 4.265989397793551325e+05
6.100900000000000212e+00 4.296895721565505955e+05
6.136400000000000077e+00 4.344791935063017881e+05
6.171899999999999942e+00 4.411486101907381089e+05
6.207399999999999807e+00 4.492875129975365708e+05
6.242799999999999905e+00 4.579191488965900498e+05
6.278299999999999770e+00 4.662927266052057385e+05
6.313799999999999635e+00 4.741269980193091906e+05
6.349199999999999733e+00 4.815020763986405800e+05
6.384699999999999598e+00 4.895965392792658531e+05
6.420200000000000351e+00 4.992168538199473405e+05
6.455700000000000216e+00 5.089426595996313263e+05
6.491100000000000314e+00 5.168012028934857808e+05
6.526600000000000179e+00 5.222509324120559031e+05
6.562100000000000044e+00 5.244549586427428294e+05
6.597500000000000142e+00 5.231149940957885701e+05
6.633000000000000007e+00 5.206348004797222675e+05
6.668499999999999872e+00 5.207835313312563230e+05
6.703899999999999970e+00 5.241453898667766480e+05
6.739399999999999835e+00 5.284988539869568776e+05
6.774899999999999700e+00 5.323917900918175001e+05
6.810399999999999565e+00 5.355645961905217264e+05
6.845799999999999663e+00 5.384021467765232082e+05
6.881300000000000416e+00 5.420424457309186691e+05
6.916800000000000281e+00 5.461055194357460132e+05
6.952200000000000379e+00 5.490643475711023202e+05
6.987700000000000244e+00 5.508787899252824718e+05
7.023200000000000109e+00 5.528467907412917120e+05
7.058699999999999974e+00 5.555489414586498169e+05
7.094100000000000072e+00 5.580357312885350548e+05
7.129599999999999937e+00 5.585221727214135462e+05
7.165099999999999802e+00 5.574780972468993859e+05
7.200499999999999901e+00 5.573836734250058653e+05
7.235999999999999766e+00 5.588177078257955145e+05
7.271499999999999631e+00 5.604764586943042232e+05
7.306899999999999729e+00 5.618147436488767853e+05
7.342399999999999594e+00 5.622682368697754573e+05
7.377900000000000347e+00 5.608840274587282911e+05
7.413400000000000212e+00 5.583451866323397262e+05
7.448800000000000310e+00 5.555581948615770089e+05
7.484300000000000175e+00 5.519918936743529048e+05
7.519800000000000040e+00 5.478171199394101277e+05
7.555200000000000138e+00 5.442652731004488887e+05
7.590700000000000003e+00 5.415837287650159560e+05
7.626199999999999868e+00 5.393221022872045869e+05
7.661699999999999733e+00 5.371383637678258820e+05
7.697099999999999831e+00 5.340307980894490611e+05
7.732599999999999696e+00 5.290190129060884938e+05
7.768099999999999561e+00 5.220567002561254194e+05
7.803499999999999659e+00 5.141310209056807798e+05
7.839000000000000412e+00 5.070795451628949377e+05
7.874500000000000277e+00 5.016433701612898149e+05
7.909900000000000375e+00 4.973097595294771600e+05
7.945400000000000240e+00 4.940507379528357415e+05
7.980900000000000105e+00 4.926837174284537905e+05
8.016400000000000858e+00 4.933774492710190243e+05
8.051800000000000068e+00 4.946811662731866818e+05
8.087300000000000821e+00 4.958249962869493756e+05
8.122799999999999798e+00 4.979145359138183412e+05
8.158200000000000784e+00 5.024327555748216691e+05
8.193699999999999761e+00 5.101254568011795636e+05
8.229200000000000514e+00 5.189702731620796258e+05
8.264699999999999491e+00 5.252319810962375486e+05
8.300100000000000477e+00 5.288728470476235962e+05
8.335599999999999454e+00 5.325228812265833840e+05
8.371100000000000207e+00 5.367699591223396128e+05
8.406499999999999417e+00 5.403230263692749431e+05
8.442000000000000171e+00 5.424115246831894619e+05
8.477499999999999147e+00 5.440630986472471850e+05
8.512900000000000134e+00 5.478079640508475713e+05
8.548400000000000887e+00 5.554355539897124982e+05
8.583899999999999864e+00 5.681299174155517248e+05
8.619400000000000617e+00 5.879230876901076408e+05
8.654799999999999827e+00 6.165546635882272385e+05
8.690300000000000580e+00 6.544298518700615969e+05
8.725799999999999557e+00 6.975400518186569680e+05
8.761200000000000543e+00 7.360923896175255068e+05
8.796699999999999520e+00 7.597817288991274545e+05
8.832200000000000273e+00 7.639504059530000668e+05
8.867699999999999250e+00 7.530821366916141706e+05
8.903100000000000236e+00 7.362265366959780222e+05
8.938599999999999213e+00 7.188995155699187890e+05
8.974099999999999966e+00 7.027867295602752129e+05
9.009499999999999176e+00 6.891789831717938650e+05
9.044999999999999929e+00 6.789754990924025187e+05
9.080500000000000682e+00 6.719168949950675014e+05
9.115899999999999892e+00 6.670409527197547723e+05
9.151400000000000645e+00 6.631611321142466040e+05
9.186899999999999622e+00 6.598029136025924236e+05
9.222400000000000375e+00 6.576126580157955177e+05
9.257799999999999585e+00 6.570953067010048544e+05
9.293300000000000338e+00 6.580115431532686343e+05
9.328799999999999315e+00 6.597088502605186077e+05
9.364200000000000301e+00 6.613679745604560012e+05
9.399699999999999278e+00 6.623377544034958119e+05
9.435200000000000031e+00 6.622569488395624794e+05
9.470700000000000784e+00 6.618184727836169768e+05
9.506099999999999994e+00 6.625308657575109974e+05
9.541600000000000747e+00 6.651506402548017213e+05
9.577099999999999724e+00 6.691053194156062091e+05
9.612500000000000711e+00 6.737661037155510858e+05
9.647999999999999687e+00 6.789971757187300827e+05
9.683500000000000441e+00 6.852973909948898945e+05
9.718899999999999650e+00 6.927750671643015230e+05
9.754400000000000404e+00 7.005005373424456920e+05
9.789899999999999380e+00 7.075212947626700625e+05
9.825400000000000134e+00 7.130421644639925798e+05
9.860799999999999343e+00 7.160199192586338613e+05
9.896300000000000097e+00 7.160382205586978234e+05
9.931800000000000850e+00 7.144199187146995682e+05
9.967200000000000060e+00 7.129946195750928018e+05
1.000270000000000081e+01 7.127283575047518825e+05
1.003819999999999979e+01 7.140210695780854439e+05
1.007370000000000054e+01 7.165076329239978222e+05
1.010909999999999975e+01 7.194433049564626999e+05
1.014460000000000051e+01 7.224117080305302516e+05
1.018009999999999948e+01 7.258910104312980548e+05
1.021550000000000047e+01 7.304452765853335150e+05
1.025099999999999945e+01 7.353616782507728785e+05
1.028650000000000020e+01 7.389535898990044370e+05
1.032199999999999918e+01 7.403856843819650821e+05
1.035740000000000016e+01 7.404759276854266645e+05
1.039289999999999914e+01 7.404079261401157128e+05
1.042839999999999989e+01 7.404244578602697002e+05
1.046380000000000088e+01 7.406901717464278918e+05
1.049929999999999986e+01 7.418201414210591465e+05
1.053480000000000061e+01 7.445721625105503481e+05
1.057019999999999982e+01 7.494808749918350950e+05
1.060570000000000057e+01 7.564187803897246486e+05
1.064119999999999955e+01 7.650986753529051784e+05
1.067670000000000030e+01 7.752576686176088406e+05
1.071209999999999951e+01 7.865522983529896010e+05
1.074760000000000026e+01 7.988268245097829495e+05
1.078309999999999924e+01 8.114980157703126315e+05
1.081850000000000023e+01 8.231691020133568672e+05
1.085399999999999920e+01 8.328750883997722995e+05
1.088949999999999996e+01 8.405766659158586990e+05
1.092500000000000071e+01 8.467210847484134138e+05
1.096039999999999992e+01 8.517118574839739595e+05
1.099590000000000067e+01 8.553602243421974126e+05
1.103139999999999965e+01 8.570954040593710961e+05
1.106680000000000064e+01 8.571328701949131209e+05
1.110229999999999961e+01 8.562200066684285412e+05
1.113780000000000037e+01 8.550046439647262450e+05
1.117319999999999958e+01 8.545776690333995502e+05
1.120870000000000033e+01 8.559004836495608324e+05
1.124419999999999931e+01 8.589494168166312156e+05
1.127970000000000006e+01 8.632243359601092525e+05
1.131509999999999927e+01 8.681430566790481098e+05
1.135060000000000002e+01 8.729398853353514569e+05
1.138610000000000078e+01 8.769482768737014849e+05
1.142149999999999999e+01 8.801951015964706894e+05
1.145700000000000074e+01 8.828511415566640208e+05
1.149249999999999972e+01 8.846727107916686218e+05
1.152800000000000047e+01 8.852576523445342900e+05
1.156339999999999968e+01 8.846932159262305358e+05
1.159890000000000043e+01 8.837426487272274680e+05
1.163439999999999941e+01 8.831656494623435428e+05
1.166980000000000040e+01 8.831899847551682033e+05
1.170529999999999937e+01 8.845219622133075027e+05
1.174080000000000013e+01 8.884468807527029421e+05
1.177619999999999933e+01 8.950450791984236566e+05
1.181170000000000009e+01 9.029174829425385688e+05
1.184720000000000084e+01 9.103691729657008545e+05
1.188269999999999982e+01 9.167521286339357030e+05
1.191810000000000080e+01 9.215974154230153654e+05
1.195359999999999978e+01 9.249972632079466712e+05
1.198910000000000053e+01 9.284986854931368725e+05
1.202449999999999974e+01 9.332875647800762672e+05
1.206000000000000050e+01 9.391331093176552095e+05
1.209549999999999947e+01 9.454236464279901702e+05
1.213100000000000023e+01 9.509999108916567639e+05
1.216639999999999944e+01 9.539480224179114448e+05
1.220190000000000019e+01 9.535319145593012217e+05
1.223739999999999917e+01 9.512540623341182945e+05
1.227280000000000015e+01 9.485939236884604907e+05
1.230829999999999913e+01 9.453600952391355531e+05
1.234379999999999988e+01 9.398151042238970986e+05
1.237920000000000087e+01 9.315259291136777028e+05
1.241469999999999985e+01 9.227008132673930377e+05
1.245020000000000060e+01 9.162538916549070273e+05
1.248569999999999958e+01 9.138485812936803559e+05
1.252110000000000056e+01 9.160790043336147210e+05
1.255659999999999954e+01 9.221298797438145848e+05
1.259210000000000029e+01 9.306651533808602253e+05
1.262749999999999950e+01 9.405585274332870031e+05
1.266300000000000026e+01 9.508217209212820744e+05
1.269849999999999923e+01 9.605216987891843310e+05
1.273399999999999999e+01 9.683460145642387215e+05
1.276939999999999920e+01 9.725878869618710596e+05
1.280489999999999995e+01 9.738676399138638517e+05
1.284040000000000070e+01 9.741099820481757633e+05
1.287579999999999991e+01 9.743915998307103291e+05
1.291130000000000067e+01 9.754461218040141976e+05
1.294679999999999964e+01 9.776718517568617826e+05
1.298220000000000063e+01 9.805494233693963615e+05
1.301769999999999960e+01 9.836501724558251444e+05
1.305320000000000036e+01 9.873187506219778443e+05
1.308869999999999933e+01 9.928923725273283198e+05
1.312410000000000032e+01 1.001516607577597024e+06
1.315959999999999930e+01 1.012262917060840526e+06
1.319510000000000005e+01 1.023153972264681477e+06
1.323049999999999926e+01 1.032742488576325821e+06
1.326600000000000001e+01 1.040731317477402627e+06
1.330150000000000077e+01 1.047575415612712735e+06
1.333699999999999974e+01 1.053215492805499118e+06
1.337240000000000073e+01 1.057103789712654892e+06
1.340789999999999971e+01 1.058881088147006230e+06
1.344340000000000046e+01 1.058595214151559630e+06
1.347879999999999967e+01 1.056974646227314603e+06
1.351430000000000042e+01 1.054546179135708371e+06
1.354979999999999940e+01 1.052243572693219874e+06
1.358520000000000039e+01 1.050885552859504241e+06
1.362069999999999936e+01 1.049349623543737922e+06
1.365620000000000012e+01 1.046641403395661153e+06
1.369170000000000087e+01 1.043667349315827014e+06
1.372710000000000008e+01 1.041726078486604150e+06
1.376260000000000083e+01 1.040247180436083116e+06
1.379809999999999981e+01 1.037194176469681202e+06
1.383350000000000080e+01 1.030317373075726791e+06
1.386899999999999977e+01 1.018942815113755059e+06
1.390450000000000053e+01 1.005162283260169905e+06
1.393999999999999950e+01 9.919081802610059967e+05
1.397540000000000049e+01 9.813672094732755795e+05
1.401089999999999947e+01 9.740588812392684631e+05
1.404640000000000022e+01 9.692809442680077627e+05
1.408179999999999943e+01 9.665484152841145406e+05
1.411730000000000018e+01 9.657593595287315547e+05
