# energy(eV) alpha
0.000000000000000000e+00 0.000000000000000000e+00
3.670000000000000345e-02 5.192962020636419096e-01
7.349999999999999589e-02 2.144927023234818098e+00
1.102000000000000063e-01 4.872267203871865071e+00
1.469999999999999918e-01 8.578297360583709619e+00
1.837000000000000022e-01 1.331702781205239461e+01
2.205000000000000016e-01 1.929570617929682896e+01
2.571999999999999842e-01 2.659478091365745200e+01
2.939999999999999836e-01 3.455010795682269986e+01
3.306999999999999940e-01 4.381985484853274215e+01
3.674999999999999933e-01 5.420089687291360292e+01
4.042000000000000037e-01 6.566232081781315344e+01
4.410000000000000031e-01 7.862373366955014831e+01
4.777000000000000135e-01 9.230196228926585889e+01
5.144999999999999574e-01 1.075428246390009406e+02
5.512000000000000233e-01 1.234278312433291802e+02
5.879999999999999671e-01 1.409364224106093957e+02
6.247000000000000330e-01 1.595679458195503457e+02
6.614999999999999769e-01 1.793660762507602442e+02
6.982000000000000428e-01 2.008895725424461318e+02
7.349999999999999867e-01 2.236411722644667748e+02
7.717000000000000526e-01 2.475556264147889465e+02
8.084999999999999964e-01 2.726944602196208507e+02
8.451999999999999513e-01 2.997245245204182993e+02
8.820000000000000062e-01 3.288062394202706855e+02
9.186999999999999611e-01 3.575436350050666761e+02
9.555000000000000160e-01 3.891622462872583128e+02
9.921999999999999709e-01 4.220307772189920570e+02
1.028999999999999915e+00 4.571242838504707038e+02
1.065700000000000092e+00 4.935119727738253346e+02
1.102500000000000036e+00 5.312773981626085060e+02
1.139199999999999990e+00 5.713071538607326829e+02
1.175999999999999934e+00 6.117456061588831062e+02
1.212699999999999889e+00 6.566015060482845911e+02
1.249400000000000066e+00 7.007671738683742433e+02
1.286200000000000010e+00 7.496865704476714427e+02
1.322899999999999965e+00 7.989265325191153124e+02
1.359699999999999909e+00 8.520318791091057165e+02
1.396400000000000086e+00 9.078418459282574986e+02
1.433200000000000029e+00 9.640801518803434647e+02
1.469899999999999984e+00 1.024331558112364746e+03
1.506699999999999928e+00 1.086284314065922217e+03
1.543400000000000105e+00 1.149786072947822504e+03
1.580200000000000049e+00 1.219040078234532530e+03
1.616900000000000004e+00 1.291384255388318707e+03
1.653699999999999948e+00 1.364183350231583290e+03
1.690399999999999903e+00 1.444409241045737872e+03
1.727200000000000069e+00 1.525177670782380119e+03
1.763900000000000023e+00 1.610735889154024107e+03
1.800699999999999967e+00 1.699853582796285991e+03
1.837399999999999922e+00 1.795530769925864661e+03
1.874200000000000088e+00 1.893423579211931383e+03
1.910900000000000043e+00 1.998146937582706187e+03
1.947699999999999987e+00 2.106833852132437642e+03
1.984399999999999942e+00 2.220997461823234062e+03
2.021199999999999886e+00 2.340970433575020252e+03
2.057900000000000063e+00 2.468370506099425256e+03
2.094700000000000006e+00 2.600133071394609033e+03
2.131400000000000183e+00 2.743152846344848967e+03
2.168200000000000127e+00 2.892602584153847602e+03
2.204899999999999860e+00 3.050149294249600644e+03
2.241699999999999804e+00 3.216216583405353958e+03
2.278399999999999981e+00 3.394452959487050066e+03
2.315199999999999925e+00 3.581637249818992132e+03
2.351900000000000102e+00 3.781434698484317778e+03
2.388700000000000045e+00 3.994431081040669596e+03
2.425399999999999778e+00 4.224528294663333327e+03
2.462200000000000166e+00 4.468413972232358901e+03
2.498899999999999899e+00 4.729968096712502302e+03
2.535600000000000076e+00 5.013815134387305079e+03
2.572400000000000020e+00 5.318491022963710748e+03
2.609100000000000197e+00 5.650161034800189555e+03
2.645900000000000141e+00 6.011854160285743092e+03
2.682599999999999874e+00 6.403557565849461753e+03
2.719399999999999817e+00 6.834790129337661710e+03
2.756099999999999994e+00 7.312050449754939109e+03
2.792899999999999938e+00 7.838754562722351693e+03
2.829600000000000115e+00 8.428109599969373448e+03
2.866400000000000059e+00 9.090303202217888611e+03
2.903099999999999792e+00 9.841009610894241632e+03
2.939900000000000180e+00 1.069981189979324154e+04
2.976599999999999913e+00 1.169374804768790455e+04
3.013399999999999856e+00 1.286100251295113412e+04
3.050100000000000033e+00 1.424935065389447846e+04
3.086899999999999977e+00 1.593624911152184177e+04
3.123600000000000154e+00 1.802461829448099525e+04
3.160400000000000098e+00 2.068671717503044783e+04
3.197099999999999831e+00 2.416021034370567213e+04
3.233900000000000219e+00 2.877690443092744317e+04
3.270599999999999952e+00 3.489202551228326047e+04
3.307399999999999896e+00 4.292602610021698638e+04
3.344100000000000072e+00 5.358358124998109997e+04
3.380900000000000016e+00 6.777661095969245071e+04
3.417600000000000193e+00 8.590009296905971132e+04
3.454400000000000137e+00 1.064544681712480087e+05
3.491099999999999870e+00 1.254536271088793146e+05
3.527899999999999814e+00 1.384852826521227544e+05
3.564599999999999991e+00 1.445228384738579916e+05
3.601399999999999935e+00 1.466031486430143414e+05
3.638100000000000112e+00 1.474526576304716000e+05
3.674900000000000055e+00 1.480543831753276172e+05
3.711599999999999788e+00 1.490769430657170888e+05
3.748299999999999965e+00 1.512971371359130717e+05
3.785099999999999909e+00 1.545457831728931342e+05
3.821800000000000086e+00 1.580939169086858165e+05
3.858600000000000030e+00 1.611962764073077415e+05
3.895300000000000207e+00 1.630277777379477338e+05
3.932100000000000151e+00 1.636597179499035119e+05
3.968799999999999883e+00 1.638082641679461813e+05
4.005600000000000271e+00 1.638258332685916976e+05
4.042300000000000004e+00 1.636919994106639642e+05
4.079100000000000392e+00 1.640592431276027637e+05
4.115800000000000125e+00 1.658751975835581834e+05
4.152599999999999625e+00 1.694108604680128046e+05
4.189300000000000246e+00 1.743294978936321859e+05
4.226099999999999746e+00 1.804000558617447386e+05
4.262800000000000367e+00 1.881203191480948881e+05
4.299599999999999866e+00 1.984787519596378261e+05
4.336299999999999599e+00 2.115546663509914652e+05
4.373099999999999987e+00 2.265040757494001591e+05
4.409799999999999720e+00 2.417710271508669830e+05
4.446600000000000108e+00 2.559437557007770811e+05
4.483299999999999841e+00 2.693001989235439687e+05
4.520100000000000229e+00 2.828889293226505979e+05
4.556799999999999962e+00 2.977949763578330167e+05
4.593600000000000350e+00 3.154865730220696423e+05
4.630300000000000082e+00 3.369380797026174841e+05
4.667099999999999582e+00 3.614909788683824590e+05
4.703800000000000203e+00 3.859377027731693233e+05
4.740599999999999703e+00 4.067471375166244688e+05
4.777300000000000324e+00 4.223337809732282185e+05
4.814099999999999824e+00 4.344489690391520853e+05
4.850799999999999557e+00 4.462648087525164010e+05
4.887599999999999945e+00 4.581943658916536951e+05
4.924299999999999677e+00 4.677129953936796519e+05
4.961100000000000065e+00 4.735294881339392741e+05
4.997799999999999798e+00 4.767904104669088265e+05
5.034500000000000419e+00 4.793829915554268518e+05
5.071299999999999919e+00 4.835895353678549291e+05
5.107999999999999652e+00 4.905703220005039475e+05
5.144800000000000040e+00 4.995896057831284706e+05
5.181499999999999773e+00 5.091192170670473133e+05
5.218300000000000161e+00 5.185270082459410187e+05
5.254999999999999893e+00 5.278454588860694785e+05
5.291800000000000281e+00 5.371775873803126160e+05
5.328500000000000014e+00 5.458190507493580226e+05
5.365300000000000402e+00 5.525823012178067584e+05
5.402000000000000135e+00 5.580454725672929781e+05
5.438799999999999635e+00 5.638570440902016126e+05
5.475500000000000256e+00 5.711368808322121622e+05
5.512299999999999756e+00 5.815317773057384184e+05
5.549000000000000377e+00 5.983511767485508462e+05
5.585799999999999876e+00 6.252030875439321389e+05
5.622499999999999609e+00 6.610428068692311645e+05
5.659299999999999997e+00 6.945255389155111043e+05
5.695999999999999730e+00 7.102948827444864437e+05
5.732800000000000118e+00 7.041679177784081548e+05
5.769499999999999851e+00 6.831327461817468284e+05
5.806300000000000239e+00 6.583068940569167025e+05
5.842999999999999972e+00 6.377024799856318859e+05
5.879800000000000360e+00 6.235645351916105719e+05
5.916500000000000092e+00 6.149609460151075618e+05
5.953299999999999592e+00 6.105145433385901852e+05
5.990000000000000213e+00 6.098148935591676272e+05
6.026799999999999713e+00 6.129213809515881585e+05
6.063500000000000334e+00 6.186069350146681536e+05
6.100299999999999834e+00 6.244959840944971656e+05
6.136999999999999567e+00 6.292320979515194194e+05
6.173799999999999955e+00 6.346623000920944614e+05
6.210499999999999687e+00 6.423834570593251847e+05
6.247200000000000308e+00 6.520978193755564280e+05
6.283999999999999808e+00 6.631240409317059675e+05
6.320700000000000429e+00 6.749080869245801587e+05
6.357499999999999929e+00 6.861769236903750570e+05
6.394199999999999662e+00 6.963079810624347301e+05
6.431000000000000050e+00 7.064254351870374521e+05
6.467699999999999783e+00 7.166010976613782113e+05
6.504500000000000171e+00 7.255550785207106965e+05
6.541199999999999903e+00 7.322846343936892226e+05
6.578000000000000291e+00 7.380992689654165879e+05
6.614700000000000024e+00 7.451061440295538632e+05
6.651500000000000412e+00 7.531300748705071164e+05
6.688200000000000145e+00 7.609335234846633393e+05
6.724999999999999645e+00 7.693822279754637275e+05
6.761700000000000266e+00 7.805150159620789345e+05
6.798499999999999766e+00 7.947932055321923690e+05
6.835200000000000387e+00 8.100843631628358271e+05
6.871999999999999886e+00 8.248379509099052520e+05
6.908699999999999619e+00 8.382224147157591069e+05
6.945500000000000007e+00 8.488701753169221338e+05
6.982199999999999740e+00 8.566528747581470525e+05
7.019000000000000128e+00 8.640053711929689161e+05
7.055699999999999861e+00 8.728258166702216258e+05
7.092500000000000249e+00 8.830525581960275304e+05
7.129199999999999982e+00 8.928302881342334440e+05
7.166000000000000369e+00 9.012463292247666977e+05
7.202700000000000102e+00 9.098064659490340855e+05
7.239499999999999602e+00 9.186111937042494537e+05
7.276200000000000223e+00 9.243817396418271819e+05
7.312999999999999723e+00 9.245217623518265318e+05
7.349700000000000344e+00 9.206279663794108201e+05
7.386499999999999844e+00 9.163090661868833704e+05
7.423199999999999577e+00 9.143458648546161130e+05
7.459900000000000198e+00 9.154931229812393431e+05
7.496699999999999697e+00 9.185828506112920586e+05
7.533400000000000318e+00 9.223692271129129222e+05
7.570199999999999818e+00 9.263228150471214904e+05
7.606900000000000439e+00 9.303741910233752569e+05
7.643699999999999939e+00 9.344180962433759123e+05
7.680399999999999672e+00 9.382112774712080136e+05
7.717200000000000060e+00 9.409427043990017846e+05
7.753899999999999793e+00 9.413482951934435405e+05
7.790700000000000180e+00 9.393325687163097318e+05
7.827399999999999913e+00 9.355515460621445673e+05
7.864200000000000301e+00 9.309045679162250599e+05
7.900900000000000034e+00 9.258635379022195702e+05
7.937700000000000422e+00 9.202793336180518381e+05
7.974400000000000155e+00 9.136718039185755188e+05
8.011200000000000543e+00 9.063347736548032844e+05
8.047900000000000276e+00 8.983093870442783227e+05
8.084699999999999775e+00 8.891208701932623517e+05
8.121399999999999508e+00 8.794053982560458826e+05
8.158200000000000784e+00 8.701212505569581408e+05
8.194900000000000517e+00 8.603632945777660934e+05
8.231700000000000017e+00 8.495808092701018322e+05
8.268399999999999750e+00 8.384878097832585918e+05
8.305199999999999250e+00 8.271891150160951074e+05
8.341900000000000759e+00 8.154462285529362271e+05
8.378700000000000259e+00 8.035485226787274005e+05
8.415399999999999991e+00 7.918920920902058715e+05
8.452199999999999491e+00 7.822643787974710576e+05
8.488899999999999224e+00 7.759154619456226937e+05
8.525700000000000500e+00 7.725394578809036175e+05
8.562400000000000233e+00 7.721641195454356493e+05
8.599199999999999733e+00 7.746358303777582478e+05
8.635899999999999466e+00 7.789831011037061689e+05
8.672700000000000742e+00 7.874770470597216627e+05
8.709400000000000475e+00 8.055686432569936151e+05
8.746100000000000207e+00 8.371445053054639138e+05
8.782899999999999707e+00 8.799674776334821945e+05
8.819599999999999440e+00 9.205594033143959241e+05
8.856400000000000716e+00 9.406918731667053653e+05
8.893100000000000449e+00 9.374138827585483668e+05
8.929899999999999949e+00 9.229942217748847324e+05
8.966599999999999682e+00 9.080656116057842737e+05
9.003399999999999181e+00 8.952663699133697664e+05
9.040100000000000691e+00 8.840472063802221091e+05
9.076900000000000190e+00 8.749517534372573718e+05
9.113599999999999923e+00 8.692041854364946485e+05
9.150399999999999423e+00 8.677143733507604338e+05
9.187099999999999156e+00 8.702607941980480682e+05
9.223900000000000432e+00 8.750869803794131149e+05
9.260600000000000165e+00 8.800935412995580118e+05
9.297399999999999665e+00 8.857435292895794846e+05
9.334099999999999397e+00 8.926014825221877545e+05
9.370900000000000674e+00 8.989322164559845114e+05
9.407600000000000406e+00 9.029929325678983005e+05
9.444399999999999906e+00 9.056474209828680614e+05
9.481099999999999639e+00 9.093262537631863961e+05
9.517899999999999139e+00 9.148782569703041809e+05
9.554600000000000648e+00 9.207243591929379618e+05
9.591400000000000148e+00 9.251523157780255424e+05
9.628099999999999881e+00 9.271542463236529147e+05
9.664899999999999380e+00 9.264409082541973330e+05
9.701599999999999113e+00 9.234608119906326756e+05
9.738400000000000389e+00 9.189428948805879336e+05
9.775100000000000122e+00 9.137394967054219451e+05
9.811899999999999622e+00 9.088105878415476764e+05
9.848599999999999355e+00 9.053311553126921644e+05
9.885400000000000631e+00 9.036887280107350089e+05
9.922100000000000364e+00 9.026662880036293063e+05
9.958800000000000097e+00 9.005680738053229870e+05
9.995599999999999596e+00 8.971885965974815190e+05
1.003229999999999933e+01 8.939317543875216506e+05
1.006910000000000061e+01 8.910867274033854483e+05
1.010580000000000034e+01 8.882821876550387824e+05
1.014259999999999984e+01 8.861572735034374055e+05
1.017929999999999957e+01 8.856859589916014811e+05
1.021610000000000085e+01 8.884673114505448611e+05
1.025280000000000058e+01 8.959952626823657192e+05
1.028960000000000008e+01 9.069815633022201946e+05
1.032629999999999981e+01 9.173365212744892342e+05
1.036309999999999931e+01 9.240699669901955640e+05
1.039980000000000082e+01 9.267824480031775311e+05
1.043660000000000032e+01 9.270062029710148927e+05
1.047330000000000005e+01 9.259917506571731064e+05
1.051009999999999955e+01 9.232047626033863053e+05
1.054679999999999929e+01 9.171108102297784062e+05
1.058360000000000056e+01 9.074943585754551459e+05
1.062030000000000030e+01 8.965734280890880618e+05
1.065709999999999980e+01 8.869862775749072898e+05
1.069379999999999953e+01 8.793269930917205056e+05
1.073060000000000080e+01 8.726231158669891302e+05
1.076730000000000054e+01 8.652064712164802477e+05
1.080410000000000004e+01 8.563424475396530470e+05
1.084079999999999977e+01 8.469003461641870672e+05
1.087759999999999927e+01 8.377338499655169435e+05
1.091430000000000078e+01 8.289026400612954749e+05
1.095110000000000028e+01 8.202516688679568470e+05
1.098780000000000001e+01 8.121805881815779721e+05
1.102459999999999951e+01 8.047041336833747337e+05
1.106129999999999924e+01 7.968754473430583021e+05
1.109810000000000052e+01 7.886744551508217119e+05
1.113480000000000025e+01 7.815339273287698161e+05
1.117149999999999999e+01 7.765079320626398548e+05
1.120829999999999949e+01 7.733834842012113659e+05
1.124499999999999922e+01 7.712551786706745625e+05
1.128180000000000049e+01 7.694165928947522771e+05
1.131850000000000023e+01 7.680851718987827189e+05
1.135529999999999973e+01 7.673674761932611000e+05
1.139199999999999946e+01 7.671469942415811820e+05
1.142880000000000074e+01 7.675756313868276775e+05
1.146550000000000047e+01 7.681013905971794156e+05
1.150229999999999997e+01 7.678732286083470099e+05
1.153899999999999970e+01 7.677628352293638745e+05
1.157579999999999920e+01 7.690072952535138465e+05
1.161250000000000071e+01 7.711195248248894932e+05
1.164930000000000021e+01 7.729262280564068351e+05
1.168599999999999994e+01 7.734122130739946151e+05
1.172279999999999944e+01 7.719255478021182353e+05
1.175949999999999918e+01 7.696951492266941350e+05
1.179630000000000045e+01 7.684991251232424984e+05
1.183300000000000018e+01 7.677801387049241457e+05
1.186979999999999968e+01 7.649996614004231524e+05
1.190649999999999942e+01 7.585638349935553269e+05
1.194330000000000069e+01 7.497200317513956688e+05
1.198000000000000043e+01 7.410349910074708750e+05
1.201679999999999993e+01 7.342304832074692240e+05
1.205349999999999966e+01 7.295530385143958265e+05
1.209029999999999916e+01 7.270660632195794024e+05
1.212700000000000067e+01 7.272988873770608334e+05
1.216380000000000017e+01 7.298896049011078430e+05
1.220049999999999990e+01 7.327053254319020780e+05
1.223729999999999940e+01 7.338665955589672085e+05
1.227399999999999913e+01 7.341676278087999672e+05
1.231080000000000041e+01 7.357335649401698029e+05
1.234750000000000014e+01 7.400346435134238563e+05
1.238429999999999964e+01 7.475602076506733429e+05
1.242099999999999937e+01 7.577243357775731711e+05
1.245770000000000088e+01 7.676554579472136684e+05
1.249450000000000038e+01 7.750845407906342298e+05
1.253120000000000012e+01 7.804489584271954373e+05
1.256799999999999962e+01 7.844852598315381911e+05
1.260469999999999935e+01 7.876414360259263776e+05
1.264150000000000063e+01 7.907859950597315328e+05
1.267820000000000036e+01 7.946029252244645031e+05
1.271499999999999986e+01 8.007195077277884120e+05
1.275169999999999959e+01 8.111435134984478354e+05
1.278850000000000087e+01 8.251870580448488472e+05
1.282520000000000060e+01 8.397079581947968109e+05
1.286200000000000010e+01 8.514871123247842770e+05
1.289869999999999983e+01 8.590124737935274607e+05
1.293549999999999933e+01 8.623571070837926818e+05
1.297220000000000084e+01 8.618857687492643017e+05
1.300900000000000034e+01 8.591408086101488443e+05
1.304570000000000007e+01 8.550049753649568884e+05
1.308249999999999957e+01 8.487149220979339443e+05
1.311919999999999931e+01 8.413770118116275407e+05
1.315600000000000058e+01 8.354312693919206504e+05
1.319270000000000032e+01 8.314116179883584846e+05
1.322949999999999982e+01 8.285064374313128646e+05
1.326619999999999955e+01 8.262551309841762995e+05
1.330300000000000082e+01 8.244956003775935387e+05
1.333970000000000056e+01 8.232057248121929588e+05
1.337650000000000006e+01 8.220002959525490878e+05
1.341319999999999979e+01 8.198118059837024193e+05
1.344999999999999929e+01 8.154658211155990139e+05
1.348670000000000080e+01 8.088926995351306396e+05
1.352350000000000030e+01 8.014337350382201839e+05
1.356020000000000003e+01 7.951738761689779349e+05
1.359699999999999953e+01 7.920787154465455096e+05
1.363369999999999926e+01 7.928559535728291376e+05
1.367040000000000077e+01 7.962085797921277117e+05
1.370720000000000027e+01 8.008161460835933685e+05
1.374390000000000001e+01 8.059477035389298107e+05
1.378069999999999951e+01 8.107000136256138794e+05
1.381739999999999924e+01 8.139433248821472516e+05
1.385420000000000051e+01 8.151053697040562984e+05
1.389090000000000025e+01 8.150237214483815478e+05
1.392769999999999975e+01 8.147665317999200197e+05
1.396439999999999948e+01 8.147111406162354397e+05
1.400120000000000076e+01 8.150517907526313793e+05
1.403790000000000049e+01 8.156627411741846008e+05
1.407469999999999999e+01 8.160098682578180451e+05
1.411139999999999972e+01 8.149374649171046913e+05
1.414819999999999922e+01 8.117853938863802468e+05
1.418490000000000073e+01 8.069972947839059634e+05
1.422170000000000023e+01 8.014128380620421376e+05
1.425839999999999996e+01 7.952564615278282436e+05
1.429519999999999946e+01 7.876837205025693402e+05
1.433189999999999920e+01 7.787903611074336804e+05
1.436870000000000047e+01 7.690567817627865588e+05
1.440540000000000020e+01 7.583653172182412818e+05
1.444219999999999970e+01 7.473255480267609237e+05
1.447889999999999944e+01 7.367616066300725797e+05
1.451570000000000071e+01 7.265163856048139278e+05
1.455240000000000045e+01 7.162915269718426280e+05
1.458919999999999995e+01 7.061251714392342838e+05
1.462589999999999968e+01 6.968445922501776367e+05
