# energy(eV) alpha
0.000000000000000000e+00 0.000000000000000000e+00
3.570000000000000256e-02 3.326647923391188866e-01
7.149999999999999412e-02 1.465737946773033151e+00
1.072000000000000036e-01 3.196304484309216765e+00
1.429999999999999882e-01 5.862238220707061132e+00
1.786999999999999977e-01 9.156349343181055644e+00
2.144000000000000072e-01 1.318128027412390146e+01
2.501999999999999780e-01 1.794360417725216550e+01
2.858999999999999875e-01 2.342946996301237661e+01
3.216999999999999860e-01 2.965387815206684863e+01
3.573999999999999955e-01 3.693084184433744355e+01
3.931000000000000050e-01 4.463568819211417349e+01
4.289000000000000035e-01 5.307939699737750772e+01
4.646000000000000130e-01 6.266973987438075255e+01
5.003999999999999559e-01 7.306532231251675569e+01
5.361000000000000210e-01 8.323906703546005303e+01
5.717999999999999750e-01 9.566336475119791771e+01
6.076000000000000290e-01 1.083935365371250867e+02
6.432999999999999829e-01 1.212937806603567168e+02
6.791000000000000369e-01 1.355630775346513985e+02
7.147999999999999909e-01 1.512563875213422762e+02
7.504999999999999449e-01 1.670985896075539472e+02
7.862999999999999989e-01 1.837416465886440733e+02
8.219999999999999529e-01 2.018997908832309349e+02
8.578000000000000069e-01 2.209202503178320285e+02
8.934999999999999609e-01 2.407534000943156798e+02
9.292000000000000259e-01 2.614190430923433723e+02
9.649999999999999689e-01 2.838362171735874995e+02
1.000699999999999923e+00 3.061933890201949566e+02
1.036499999999999977e+00 3.294044780006771020e+02
1.072200000000000042e+00 3.563768958625309438e+02
1.107900000000000107e+00 3.812918368053678932e+02
1.143699999999999939e+00 4.091649386443336311e+02
1.179400000000000004e+00 4.379422174178673117e+02
1.215200000000000058e+00 4.665736543060774011e+02
1.250899999999999901e+00 4.983360952309063236e+02
1.286599999999999966e+00 5.310833404669083393e+02
1.322400000000000020e+00 5.648608589856662547e+02
1.358100000000000085e+00 5.995715342511003882e+02
1.393899999999999917e+00 6.365777080680428526e+02
1.429599999999999982e+00 6.745723115820479734e+02
1.465300000000000047e+00 7.135906032145602467e+02
1.501100000000000101e+00 7.550421419212617593e+02
1.536799999999999944e+00 7.975220373457212872e+02
1.572599999999999998e+00 8.425535666280130727e+02
1.608300000000000063e+00 8.915791848332061136e+02
1.643999999999999906e+00 9.388521169224680989e+02
1.679799999999999960e+00 9.888042424328554034e+02
1.715500000000000025e+00 1.041417214064107839e+03
1.751300000000000079e+00 1.096889237199399531e+03
1.786999999999999922e+00 1.153547949521155260e+03
1.822699999999999987e+00 1.211442641235667452e+03
1.858500000000000041e+00 1.275684355759047776e+03
1.894200000000000106e+00 1.339549049081349722e+03
1.929999999999999938e+00 1.408282617441094089e+03
1.965700000000000003e+00 1.476601492074660882e+03
2.001399999999999846e+00 1.551673629918404004e+03
2.037199999999999900e+00 1.628333657041645438e+03
2.072900000000000187e+00 1.708258226955585997e+03
2.108699999999999797e+00 1.791687450400257831e+03
2.144400000000000084e+00 1.878523042721162938e+03
2.180099999999999927e+00 1.970851501593325111e+03
2.215899999999999981e+00 2.066914079764251710e+03
2.251599999999999824e+00 2.168608968835219912e+03
2.287399999999999878e+00 2.274250666581495352e+03
2.323100000000000165e+00 2.385728795549128790e+03
2.358800000000000008e+00 2.501179104980378725e+03
2.394600000000000062e+00 2.622886564803651254e+03
2.430299999999999905e+00 2.752882774552934734e+03
2.466099999999999959e+00 2.887261489580942452e+03
2.501799999999999802e+00 3.032402174085293154e+03
2.537500000000000089e+00 3.182045258860801368e+03
2.573300000000000143e+00 3.343035567456286572e+03
2.608999999999999986e+00 3.513087142753487115e+03
2.644800000000000040e+00 3.692652122568682444e+03
2.680499999999999883e+00 3.883929273234166885e+03
2.716200000000000170e+00 4.084867485228100577e+03
2.751999999999999780e+00 4.300508682705525644e+03
2.787700000000000067e+00 4.533201834052839331e+03
2.823500000000000121e+00 4.781121355683801994e+03
2.859199999999999964e+00 5.046621520701534791e+03
2.894899999999999807e+00 5.332516239655048594e+03
2.930699999999999861e+00 5.639308125879084400e+03
2.966400000000000148e+00 5.971900253516701923e+03
3.002200000000000202e+00 6.333523567754115902e+03
3.037900000000000045e+00 6.726608332898167646e+03
3.073599999999999888e+00 7.156903310600449004e+03
3.109399999999999942e+00 7.630126515630911854e+03
3.145099999999999785e+00 8.148850374935569562e+03
3.180899999999999839e+00 8.726952858929684226e+03
3.216600000000000126e+00 9.374949352945444843e+03
3.252299999999999969e+00 1.009335537695974199e+04
3.288100000000000023e+00 1.091493667519001247e+04
3.323799999999999866e+00 1.185267753730446020e+04
3.359599999999999920e+00 1.293700005426900680e+04
3.395300000000000207e+00 1.420771833756772139e+04
3.431000000000000050e+00 1.571642276242216394e+04
3.466800000000000104e+00 1.754149947160739612e+04
3.502499999999999947e+00 1.980841998412993780e+04
3.538300000000000001e+00 2.268789335215577012e+04
3.573999999999999844e+00 2.644901894384324623e+04
3.609700000000000131e+00 3.145256538328137322e+04
3.645500000000000185e+00 3.806174766114875820e+04
3.681200000000000028e+00 4.638053719806795561e+04
3.717000000000000082e+00 5.594635472783729347e+04
3.752699999999999925e+00 6.592049905131725245e+04
3.788400000000000212e+00 7.632421828017444932e+04
3.824199999999999822e+00 8.811776801364848507e+04
3.859900000000000109e+00 1.017299711495535157e+05
3.895700000000000163e+00 1.173217676375447336e+05
3.931400000000000006e+00 1.346499133978248865e+05
3.967099999999999849e+00 1.528082952235982229e+05
4.002900000000000347e+00 1.718403838650370890e+05
4.038599999999999746e+00 1.940356358312530210e+05
4.074399999999999800e+00 2.205999482880489668e+05
4.110100000000000087e+00 2.484391395084923424e+05
4.145800000000000374e+00 2.731418734546903870e+05
4.181600000000000428e+00 2.925017535018882481e+05
4.217299999999999827e+00 3.026820268414440216e+05
4.253099999999999881e+00 2.993159330079379142e+05
4.288800000000000168e+00 2.823025870358624961e+05
4.324499999999999567e+00 2.577734995978431252e+05
4.360299999999999621e+00 2.334753616316068510e+05
4.395999999999999908e+00 2.133661678282205830e+05
4.431799999999999962e+00 1.974879447004686808e+05
4.467500000000000249e+00 1.851677969121538918e+05
4.503199999999999648e+00 1.760907042420985526e+05
4.538999999999999702e+00 1.699226106853770907e+05
4.574699999999999989e+00 1.671580057272120321e+05
4.610500000000000043e+00 1.685606316361430509e+05
4.646200000000000330e+00 1.728886886474443600e+05
4.681899999999999729e+00 1.787184989643101289e+05
4.717699999999999783e+00 1.866457987306078721e+05
4.753400000000000070e+00 1.978670458531667828e+05
4.789200000000000124e+00 2.113097000599774183e+05
4.824900000000000411e+00 2.238106725196765328e+05
4.860599999999999810e+00 2.337629021430372377e+05
4.896399999999999864e+00 2.415662718676360382e+05
4.932100000000000151e+00 2.491718485625540488e+05
4.967900000000000205e+00 2.585812496050763584e+05
5.003599999999999604e+00 2.707252769951607916e+05
5.039299999999999891e+00 2.854796020781268599e+05
5.075099999999999945e+00 3.016132455287204939e+05
5.110800000000000232e+00 3.180976002031497192e+05
5.146600000000000286e+00 3.349570285691269091e+05
5.182299999999999685e+00 3.522151695787364151e+05
5.217999999999999972e+00 3.696189680935005890e+05
5.253800000000000026e+00 3.876683310590563342e+05
5.289500000000000313e+00 4.066974224866440636e+05
5.325300000000000367e+00 4.258361127626902307e+05
5.360999999999999766e+00 4.444148102079859236e+05
5.396700000000000053e+00 4.635336076607485302e+05
5.432500000000000107e+00 4.840775408406528877e+05
5.468200000000000394e+00 5.052964603456327459e+05
5.503899999999999793e+00 5.268531305866390467e+05
5.539699999999999847e+00 5.495030066530987388e+05
5.575400000000000134e+00 5.737167566476926440e+05
5.611200000000000188e+00 5.992176316685760394e+05
5.646899999999999586e+00 6.246151231007180177e+05
5.682599999999999874e+00 6.485139974650101503e+05
5.718399999999999928e+00 6.698288376375323860e+05
5.754100000000000215e+00 6.872394905175862368e+05
5.789900000000000269e+00 7.005698535619752947e+05
5.825599999999999667e+00 7.097179808580304962e+05
5.861299999999999955e+00 7.138144709890900413e+05
5.897100000000000009e+00 7.112894934723166516e+05
5.932800000000000296e+00 6.997289708555714460e+05
5.968600000000000350e+00 6.792871389087495627e+05
6.004299999999999748e+00 6.521566292078602128e+05
6.040000000000000036e+00 6.208936093162191100e+05
6.075800000000000090e+00 5.877484189062389778e+05
6.111500000000000377e+00 5.546701114938583924e+05
6.147300000000000431e+00 5.239728769215034554e+05
6.182999999999999829e+00 4.980019227983218152e+05
6.218700000000000117e+00 4.780446664488603128e+05
6.254500000000000171e+00 4.650041884815928643e+05
6.290199999999999569e+00 4.595657886446761549e+05
6.325999999999999623e+00 4.607172810828204383e+05
6.361699999999999910e+00 4.668725911038141930e+05
6.397400000000000198e+00 4.762158112730885041e+05
6.433200000000000252e+00 4.874077216381999315e+05
6.468899999999999650e+00 4.992112405194608145e+05
6.504699999999999704e+00 5.089855405202349648e+05
6.540399999999999991e+00 5.151150530000113649e+05
6.576100000000000279e+00 5.180888827158061322e+05
6.611900000000000333e+00 5.187805793527852511e+05
6.647599999999999731e+00 5.170534525827304460e+05
6.683399999999999785e+00 5.122889180323828477e+05
6.719100000000000072e+00 5.048813284807960154e+05
6.754800000000000360e+00 4.959768546547578298e+05
6.790600000000000414e+00 4.863248770138008986e+05
6.826299999999999812e+00 4.760455391661929898e+05
6.862099999999999866e+00 4.653924579933448113e+05
6.897800000000000153e+00 4.552565429100806941e+05
6.933500000000000441e+00 4.465398375312280259e+05
6.969299999999999606e+00 4.386969282854261110e+05
7.004999999999999893e+00 4.307266839624881977e+05
7.040799999999999947e+00 4.228923753763757413e+05
7.076500000000000234e+00 4.163150843522640644e+05
7.112199999999999633e+00 4.110394745710223797e+05
7.147999999999999687e+00 4.056535297805406153e+05
7.183699999999999974e+00 3.985057428981274716e+05
7.219500000000000028e+00 3.894643384182841983e+05
7.255200000000000315e+00 3.800486764003121643e+05
7.290899999999999714e+00 3.715161457362372312e+05
7.326699999999999768e+00 3.642302046914039529e+05
7.362400000000000055e+00 3.581685478725287830e+05
7.398200000000000109e+00 3.532217157895090058e+05
7.433900000000000396e+00 3.500031124585393700e+05
7.469599999999999795e+00 3.494769701519294176e+05
7.505399999999999849e+00 3.513709086768814595e+05
7.541100000000000136e+00 3.548040397362745716e+05
7.576900000000000190e+00 3.594288345316475607e+05
7.612599999999999589e+00 3.655621367280203849e+05
7.648299999999999876e+00 3.733490401547919028e+05
7.684099999999999930e+00 3.819930472696687211e+05
7.719800000000000217e+00 3.903765730661426205e+05
7.755600000000000271e+00 3.978875087779494934e+05
7.791299999999999670e+00 4.054994156515838695e+05
7.826999999999999957e+00 4.145354277497333824e+05
7.862800000000000011e+00 4.246291726236877730e+05
7.898500000000000298e+00 4.344140246534082689e+05
7.934300000000000352e+00 4.434873654356136103e+05
7.969999999999999751e+00 4.521248688857088564e+05
8.005699999999999150e+00 4.602039319908276666e+05
8.041499999999999204e+00 4.668084423822787357e+05
8.077199999999999491e+00 4.723106756772725494e+05
8.112999999999999545e+00 4.781352871157766785e+05
8.148699999999999832e+00 4.847353847578584100e+05
8.184400000000000119e+00 4.917175722484518192e+05
8.220200000000000173e+00 4.983304967131939484e+05
8.255900000000000460e+00 5.042230266879930859e+05
8.291700000000000514e+00 5.098581838334907661e+05
8.327400000000000801e+00 5.160797912005263497e+05
8.363099999999999312e+00 5.239658022081716917e+05
8.398899999999999366e+00 5.336279408485519234e+05
8.434599999999999653e+00 5.438420848632159177e+05
8.470399999999999707e+00 5.532169438837371999e+05
8.506099999999999994e+00 5.613515955626037903e+05
8.541800000000000281e+00 5.691712692499444820e+05
8.577600000000000335e+00 5.791412320422497578e+05
8.613300000000000622e+00 5.945248490526004462e+05
8.649100000000000676e+00 6.174495209665721050e+05
8.684799999999999187e+00 6.462896197608426446e+05
8.720499999999999474e+00 6.755135881850364385e+05
8.756299999999999528e+00 6.973311342741376720e+05
8.791999999999999815e+00 7.071603977597565390e+05
8.827799999999999869e+00 7.068645171294376487e+05
8.863500000000000156e+00 7.005237202842941042e+05
8.899200000000000443e+00 6.925580194497840712e+05
8.935000000000000497e+00 6.863270264606190613e+05
8.970700000000000784e+00 6.827834135622837348e+05
9.006500000000000838e+00 6.814726150370422984e+05
9.042199999999999349e+00 6.818286102277999744e+05
9.077899999999999636e+00 6.836197942510425346e+05
9.113699999999999690e+00 6.863789501419592416e+05
9.149399999999999977e+00 6.898360092798612313e+05
9.185200000000000031e+00 6.940873180051306263e+05
9.220900000000000318e+00 6.987885837428210070e+05
9.256600000000000605e+00 7.035528923848732375e+05
9.292400000000000659e+00 7.091600070729334839e+05
9.328099999999999170e+00 7.170202921432356816e+05
9.363899999999999224e+00 7.267223291800938314e+05
9.399599999999999511e+00 7.358437619554024423e+05
9.435299999999999798e+00 7.427337927084849216e+05
9.471099999999999852e+00 7.482147726538146380e+05
9.506800000000000139e+00 7.542118108205882600e+05
9.542600000000000193e+00 7.621296453968029236e+05
9.578300000000000480e+00 7.713644497835926013e+05
9.614000000000000767e+00 7.803588836745012086e+05
9.649800000000000821e+00 7.886738979274812154e+05
9.685499999999999332e+00 7.961821634242945584e+05
9.721299999999999386e+00 8.028251297820708714e+05
9.756999999999999673e+00 8.096472386695077876e+05
9.792699999999999960e+00 8.176127394530983875e+05
9.828500000000000014e+00 8.260316681939455448e+05
9.864200000000000301e+00 8.324144624831181718e+05
9.900000000000000355e+00 8.349115808386462741e+05
9.935700000000000642e+00 8.336271264467778383e+05
9.971399999999999153e+00 8.299355246310665971e+05
1.000719999999999921e+01 8.257814872267702594e+05
1.004289999999999949e+01 8.224461535006646300e+05
1.007869999999999955e+01 8.200549258116121637e+05
1.011439999999999984e+01 8.180914869159932714e+05
1.015010000000000012e+01 8.163438869569895323e+05
1.018590000000000018e+01 8.141934295532758115e+05
1.022160000000000046e+01 8.112165766773923533e+05
1.025740000000000052e+01 8.084054304795589997e+05
1.029310000000000080e+01 8.063614183005177183e+05
1.032879999999999932e+01 8.046998983696687501e+05
1.036459999999999937e+01 8.034129330760212615e+05
1.040029999999999966e+01 8.031733707281722454e+05
1.043609999999999971e+01 8.035886721044229344e+05
1.047180000000000000e+01 8.043942731619462138e+05
1.050750000000000028e+01 8.060907711254141759e+05
1.054330000000000034e+01 8.096907169059362495e+05
1.057900000000000063e+01 8.163874712396044051e+05
1.061480000000000068e+01 8.264665923895485466e+05
1.065049999999999919e+01 8.385740213623332093e+05
1.068619999999999948e+01 8.506478608832027530e+05
1.072199999999999953e+01 8.608688612761721015e+05
1.075769999999999982e+01 8.681200110633181175e+05
1.079349999999999987e+01 8.724297070620377781e+05
1.082920000000000016e+01 8.754911267144226003e+05
1.086490000000000045e+01 8.787071429414049489e+05
1.090070000000000050e+01 8.827516801016133977e+05
1.093640000000000079e+01 8.871770193637280026e+05
1.097220000000000084e+01 8.904647672602958046e+05
1.100789999999999935e+01 8.925810634218073683e+05
1.104359999999999964e+01 8.954629748965476174e+05
1.107939999999999969e+01 9.007974770368797472e+05
1.111509999999999998e+01 9.074814512759702047e+05
1.115090000000000003e+01 9.123947341540540801e+05
1.118660000000000032e+01 9.146280645975124789e+05
1.122230000000000061e+01 9.162533980377658736e+05
1.125810000000000066e+01 9.180692637572544627e+05
1.129379999999999917e+01 9.188075567730636103e+05
1.132959999999999923e+01 9.186800292618230451e+05
1.136529999999999951e+01 9.187121713041595649e+05
1.140099999999999980e+01 9.192296751179881394e+05
1.143679999999999986e+01 9.202480071281262208e+05
1.147250000000000014e+01 9.207411610083784908e+05
1.150830000000000020e+01 9.197335008761367062e+05
1.154400000000000048e+01 9.182227026145098498e+05
1.157970000000000077e+01 9.181377313968959497e+05
1.161550000000000082e+01 9.193217015527369222e+05
1.165119999999999933e+01 9.197402058150696103e+05
1.168699999999999939e+01 9.183765920434804866e+05
1.172269999999999968e+01 9.163228863077870337e+05
1.175839999999999996e+01 9.154223632330483524e+05
1.179420000000000002e+01 9.158542977186344797e+05
1.182990000000000030e+01 9.166262263633859111e+05
1.186570000000000036e+01 9.176637588757552439e+05
1.190140000000000065e+01 9.202163151370404521e+05
1.193709999999999916e+01 9.256873049576074118e+05
1.197289999999999921e+01 9.332561892226617783e+05
1.200859999999999950e+01 9.402669747342001647e+05
1.204439999999999955e+01 9.453340748462860938e+05
1.208009999999999984e+01 9.489382616491274675e+05
1.211580000000000013e+01 9.524493217550999252e+05
1.215160000000000018e+01 9.557005387293871026e+05
1.218730000000000047e+01 9.563863378963901196e+05
1.222310000000000052e+01 9.537988694479678525e+05
1.225880000000000081e+01 9.497160369334782008e+05
1.229449999999999932e+01 9.450639774292712100e+05
1.233029999999999937e+01 9.397024868684206158e+05
1.236599999999999966e+01 9.332638072940005222e+05
1.240179999999999971e+01 9.255500939882732928e+05
1.243750000000000000e+01 9.168408549948404543e+05
1.247320000000000029e+01 9.082255802742259111e+05
1.250900000000000034e+01 9.011525123892092379e+05
1.254470000000000063e+01 8.966226283342309762e+05
1.258050000000000068e+01 8.945473219075127272e+05
1.261619999999999919e+01 8.945375365539109334e+05
1.265189999999999948e+01 8.963755567833647365e+05
1.268769999999999953e+01 8.994103447771315696e+05
1.272339999999999982e+01 9.020399859925367637e+05
1.275919999999999987e+01 9.030625810860776110e+05
1.279490000000000016e+01 9.020661524135920918e+05
1.283060000000000045e+01 8.993255878471329343e+05
1.286640000000000050e+01 8.956000965989719843e+05
1.290210000000000079e+01 8.914598929076668574e+05
1.293790000000000084e+01 8.872740678466628306e+05
1.297359999999999935e+01 8.836792468479595846e+05
1.300929999999999964e+01 8.810829768386747455e+05
1.304509999999999970e+01 8.797851598331884015e+05
1.308079999999999998e+01 8.806285494948052801e+05
1.311660000000000004e+01 8.830320144695559284e+05
1.315230000000000032e+01 8.846518486903532175e+05
1.318800000000000061e+01 8.851215284302986693e+05
1.322380000000000067e+01 8.861303477086867206e+05
1.325949999999999918e+01 8.885226095645771129e+05
1.329529999999999923e+01 8.918144821332244901e+05
1.333099999999999952e+01 8.950770764757759171e+05
1.336669999999999980e+01 8.980952580056847073e+05
1.340249999999999986e+01 9.017707147064913297e+05
1.343820000000000014e+01 9.073134301084583858e+05
1.347400000000000020e+01 9.148534095250326209e+05
1.350970000000000049e+01 9.227279617477644933e+05
1.354540000000000077e+01 9.289174341070400551e+05
1.358120000000000083e+01 9.335783537593006622e+05
1.361689999999999934e+01 9.388213711765977787e+05
1.365269999999999939e+01 9.454984587548990967e+05
1.368839999999999968e+01 9.520824934426278342e+05
1.372409999999999997e+01 9.565058957999960985e+05
1.375990000000000002e+01 9.574860462087185588e+05
1.379560000000000031e+01 9.546900509970531566e+05
1.383140000000000036e+01 9.495431868733792799e+05
1.386710000000000065e+01 9.439410504393011797e+05
1.390279999999999916e+01 9.384876339691297617e+05
1.393859999999999921e+01 9.327441257494555321e+05
1.397429999999999950e+01 9.263335473108770093e+05
1.401009999999999955e+01 9.198434851596220396e+05
1.404579999999999984e+01 9.133597098673846340e+05
1.408150000000000013e+01 9.054432128991594072e+05
1.411730000000000018e+01 8.953804343215166591e+05
1.415300000000000047e+01 8.837711847797736991e+05
1.418880000000000052e+01 8.716372014652114594e+05
1.422450000000000081e+01 8.601465012881595176e+05
