# energy(eV) alpha
0.000000000000000000e+00 0.000000000000000000e+00
4.390000000000000152e-02 1.570071722373166834e+00
8.780000000000000304e-02 6.136889788765429898e+00
1.317000000000000115e-01 1.380549793312829898e+01
1.756999999999999951e-01 2.469347549106565154e+01
2.195999999999999897e-01 3.852223560176837935e+01
2.635000000000000120e-01 5.583020043981929348e+01
3.074000000000000066e-01 7.632516515425612624e+01
3.513000000000000012e-01 1.002819622409586628e+02
3.951999999999999957e-01 1.271562162273874463e+02
4.390999999999999903e-01 1.578956202951694081e+02
4.829999999999999849e-01 1.923062059900315717e+02
5.270000000000000240e-01 2.309496809103707449e+02
5.708999999999999631e-01 2.730087160052237891e+02
6.148000000000000131e-01 3.190016774788105067e+02
6.586999999999999522e-01 3.700708932143106153e+02
7.026000000000000023e-01 4.259371752204068571e+02
7.465000000000000524e-01 4.855797528827475844e+02
7.903999999999999915e-01 5.508701301445282752e+02
8.344000000000000306e-01 6.214824510916836289e+02
8.782999999999999696e-01 6.981496266981225745e+02
9.222000000000000197e-01 7.811959689278820633e+02
9.660999999999999588e-01 8.701049227463286115e+02
1.010000000000000009e+00 9.666313339541471805e+02
1.053900000000000059e+00 1.071111229651251506e+03
1.097800000000000109e+00 1.183874141959190865e+03
1.141699999999999937e+00 1.306138171695562960e+03
1.185699999999999976e+00 1.438419561757229303e+03
1.229600000000000026e+00 1.581840717774963878e+03
1.273500000000000076e+00 1.737975248319146203e+03
1.317399999999999904e+00 1.907349626994662231e+03
1.361299999999999955e+00 2.091533869148877784e+03
1.405200000000000005e+00 2.294382397820710594e+03
1.449100000000000055e+00 2.514447261832611730e+03
1.493000000000000105e+00 2.759226592449988857e+03
1.536999999999999922e+00 3.028785706791853954e+03
1.580899999999999972e+00 3.328490293596326865e+03
1.624800000000000022e+00 3.662137469464334572e+03
1.668700000000000072e+00 4.038561811720168407e+03
1.712599999999999900e+00 4.464474908370491903e+03
1.756499999999999950e+00 4.953420750949695503e+03
1.800400000000000000e+00 5.519631803577560277e+03
1.844400000000000039e+00 6.186390661381659811e+03
1.888300000000000090e+00 6.985363810613085661e+03
1.932199999999999918e+00 7.967303449165598067e+03
1.976099999999999968e+00 9.213330267980194549e+03
2.020000000000000018e+00 1.086163550398343978e+04
2.063899999999999846e+00 1.313087753540658559e+04
2.107800000000000118e+00 1.625565034318718426e+04
2.151699999999999946e+00 2.009039591554533399e+04
2.195699999999999985e+00 2.412950291289155575e+04
2.239599999999999813e+00 2.890983486457758045e+04
2.283500000000000085e+00 3.605877658548414183e+04
2.327399999999999913e+00 4.554168886975546047e+04
2.371300000000000185e+00 5.531431100053886621e+04
2.415200000000000014e+00 6.443802614681613341e+04
2.459099999999999842e+00 7.221065867068678199e+04
2.503099999999999881e+00 7.953165236875269329e+04
2.547000000000000153e+00 8.845422938810590131e+04
2.590899999999999981e+00 9.897074969338566007e+04
2.634799999999999809e+00 1.061513226731300238e+05
2.678700000000000081e+00 1.097297434927043651e+05
2.722599999999999909e+00 1.134825821633788000e+05
2.766500000000000181e+00 1.190918167527620244e+05
2.810400000000000009e+00 1.252256331750706449e+05
2.854400000000000048e+00 1.338420125823107082e+05
2.898299999999999876e+00 1.478326643511971342e+05
2.942200000000000149e+00 1.694719976556705660e+05
2.986099999999999977e+00 1.957438866998897574e+05
3.029999999999999805e+00 2.193885446615831752e+05
3.073900000000000077e+00 2.330568453330574266e+05
3.117799999999999905e+00 2.315911133671950374e+05
3.161700000000000177e+00 2.245188972870811704e+05
3.205700000000000216e+00 2.216080913426853367e+05
3.249600000000000044e+00 2.273315469859461882e+05
3.293499999999999872e+00 2.422062773037104344e+05
3.337400000000000144e+00 2.604202808719342866e+05
3.381299999999999972e+00 2.742076067312442465e+05
3.425199999999999800e+00 2.808339681350528845e+05
3.469100000000000072e+00 2.849072857220388833e+05
3.513100000000000112e+00 2.899519979840102023e+05
3.556999999999999940e+00 2.952665370283203665e+05
3.600900000000000212e+00 3.010515639508417225e+05
3.644800000000000040e+00 3.093481757638519048e+05
3.688699999999999868e+00 3.189440358917503036e+05
3.732600000000000140e+00 3.308519730366862495e+05
3.776499999999999968e+00 3.465291422205124982e+05
3.820399999999999796e+00 3.636125138479199377e+05
3.864399999999999835e+00 3.804342349573019892e+05
3.908300000000000107e+00 3.969629843796163332e+05
3.952199999999999935e+00 4.138362686911852797e+05
3.996100000000000207e+00 4.321421698771709925e+05
4.040000000000000036e+00 4.485608689507482923e+05
4.083899999999999864e+00 4.583253229499441222e+05
4.127799999999999692e+00 4.604353328212487395e+05
4.171800000000000175e+00 4.568708524362933822e+05
4.215700000000000003e+00 4.511663824591421289e+05
4.259599999999999831e+00 4.444394581885082298e+05
4.303499999999999659e+00 4.376661883038250380e+05
4.347400000000000375e+00 4.342377642778619193e+05
4.391300000000000203e+00 4.351153525452406029e+05
4.435200000000000031e+00 4.384089144370643771e+05
4.479099999999999859e+00 4.434082921616237727e+05
4.523100000000000342e+00 4.524765797588895075e+05
4.567000000000000171e+00 4.650744688954178127e+05
4.610899999999999999e+00 4.768653228381130612e+05
4.654799999999999827e+00 4.841036178343886859e+05
4.698699999999999655e+00 4.867202502830110607e+05
4.742600000000000371e+00 4.852338809434727300e+05
4.786500000000000199e+00 4.799170992663932266e+05
4.830400000000000027e+00 4.728671219436260290e+05
4.874399999999999622e+00 4.672675305047266884e+05
4.918300000000000338e+00 4.645873633592114784e+05
4.962200000000000166e+00 4.640071425711784977e+05
5.006099999999999994e+00 4.646464647622432676e+05
5.049999999999999822e+00 4.659938413909489173e+05
5.093899999999999650e+00 4.642719096912445966e+05
5.137800000000000367e+00 4.573007735494298395e+05
5.181799999999999962e+00 4.472096903815473197e+05
5.225699999999999790e+00 4.374366973273426411e+05
5.269599999999999618e+00 4.297050802600947791e+05
5.313500000000000334e+00 4.231461827646460733e+05
5.357400000000000162e+00 4.162591487310629454e+05
5.401299999999999990e+00 4.090366816496418323e+05
5.445199999999999818e+00 4.034264742067960906e+05
5.489099999999999646e+00 3.991799934478423675e+05
5.533100000000000129e+00 3.951410213947804295e+05
5.576999999999999957e+00 3.945956738018564647e+05
5.620899999999999785e+00 3.973578306863601902e+05
5.664799999999999613e+00 3.980937208449277678e+05
5.708700000000000330e+00 3.936948502764376462e+05
5.752600000000000158e+00 3.838501208019714104e+05
5.796499999999999986e+00 3.728383619264998706e+05
5.840499999999999581e+00 3.649287297983096796e+05
5.884400000000000297e+00 3.606986472962959087e+05
5.928300000000000125e+00 3.594851077875848277e+05
5.972199999999999953e+00 3.587079928175341920e+05
6.016099999999999781e+00 3.569186954004465952e+05
6.059999999999999609e+00 3.537302600946912426e+05
6.103900000000000325e+00 3.486427076193885296e+05
6.147800000000000153e+00 3.432646047479978297e+05
6.191799999999999748e+00 3.399512092846590676e+05
6.235699999999999577e+00 3.394450902916978230e+05
6.279600000000000293e+00 3.411358138580454979e+05
6.323500000000000121e+00 3.448968435226302245e+05
6.367399999999999949e+00 3.507586551814600825e+05
6.411299999999999777e+00 3.568598464467736194e+05
6.455199999999999605e+00 3.608477619402884739e+05
6.499100000000000321e+00 3.624336005567855318e+05
6.543099999999999916e+00 3.612380693661982659e+05
6.586999999999999744e+00 3.575780936180174467e+05
6.630899999999999572e+00 3.533102397872428410e+05
6.674800000000000288e+00 3.513699312524399720e+05
6.718700000000000117e+00 3.545179132873433409e+05
6.762599999999999945e+00 3.625556119016945595e+05
6.806499999999999773e+00 3.732934260290983366e+05
6.850500000000000256e+00 3.847215239494939451e+05
6.894400000000000084e+00 3.937736208480659989e+05
6.938299999999999912e+00 3.997078805957675213e+05
6.982199999999999740e+00 4.039513606245152769e+05
7.026099999999999568e+00 4.087273360237944871e+05
7.070000000000000284e+00 4.162319677169922506e+05
7.113900000000000112e+00 4.281907719570659101e+05
7.157799999999999940e+00 4.451190835409158608e+05
7.201800000000000423e+00 4.673602228458018508e+05
7.245700000000000252e+00 4.936151027729214984e+05
7.289600000000000080e+00 5.190009329174509621e+05
7.333499999999999908e+00 5.390165523045060690e+05
7.377399999999999736e+00 5.538613474057756830e+05
7.421299999999999564e+00 5.675421964891402749e+05
7.465200000000000280e+00 5.829196242034814786e+05
7.509199999999999875e+00 5.995360171295704786e+05
7.553099999999999703e+00 6.161414256285455776e+05
7.597000000000000419e+00 6.316044921078959014e+05
7.640900000000000247e+00 6.449829362593767000e+05
7.684800000000000075e+00 6.577157224891450023e+05
7.728699999999999903e+00 6.721302270347720478e+05
7.772599999999999731e+00 6.850602734565280844e+05
7.816499999999999559e+00 6.920053976711392170e+05
7.860500000000000043e+00 6.948913979753084714e+05
7.904399999999999871e+00 6.972340846138470806e+05
7.948299999999999699e+00 6.994471248800138710e+05
7.992200000000000415e+00 7.027366323249114212e+05
8.036099999999999355e+00 7.087305324677347671e+05
8.080000000000000071e+00 7.167896523278529057e+05
8.123900000000000787e+00 7.252425657367297681e+05
8.167799999999999727e+00 7.321038297438716982e+05
8.211800000000000210e+00 7.354199533697650768e+05
8.255699999999999150e+00 7.369350079484756570e+05
8.299599999999999866e+00 7.393471023679593345e+05
8.343500000000000583e+00 7.415288286986753810e+05
8.387399999999999523e+00 7.421807599206108134e+05
8.431300000000000239e+00 7.438033610229266342e+05
8.475199999999999179e+00 7.488078119081160985e+05
8.519199999999999662e+00 7.564860898945145309e+05
8.563100000000000378e+00 7.646959754706368549e+05
8.606999999999999318e+00 7.726031944497246295e+05
8.650900000000000034e+00 7.803671377940917155e+05
8.694800000000000750e+00 7.884453018498281017e+05
8.738699999999999690e+00 7.974540802075511310e+05
8.782600000000000406e+00 8.060430769185025711e+05
8.826499999999999346e+00 8.121699881771296496e+05
8.870499999999999829e+00 8.161821561588929035e+05
8.914400000000000546e+00 8.189589777274129447e+05
8.958299999999999486e+00 8.200787497747555608e+05
9.002200000000000202e+00 8.195997353909687372e+05
9.046099999999999142e+00 8.191521374696100829e+05
9.089999999999999858e+00 8.206960922572497511e+05
9.133900000000000574e+00 8.244726501115293941e+05
9.177899999999999281e+00 8.290654499766257359e+05
9.221799999999999997e+00 8.331713393750315299e+05
9.265700000000000713e+00 8.359811920769130811e+05
9.309599999999999653e+00 8.376518724016342312e+05
9.353500000000000369e+00 8.395779724382038694e+05
9.397399999999999309e+00 8.424796420782180503e+05
9.441300000000000026e+00 8.456941352886273526e+05
9.485200000000000742e+00 8.483501231263356749e+05
9.529199999999999449e+00 8.503452517389799468e+05
9.573100000000000165e+00 8.529741145238751778e+05
9.617000000000000881e+00 8.570045267279866384e+05
9.660899999999999821e+00 8.630108323308597319e+05
9.704800000000000537e+00 8.715346531171754468e+05
9.748699999999999477e+00 8.835341470132539980e+05
9.792600000000000193e+00 8.988100281127688941e+05
9.836600000000000676e+00 9.150698577509502647e+05
9.880499999999999616e+00 9.288929930323694134e+05
9.924400000000000333e+00 9.387509658124030102e+05
9.968299999999999272e+00 9.462724092680092435e+05
1.001219999999999999e+01 9.539368566873825621e+05
1.005610000000000070e+01 9.636600688879761146e+05
1.009999999999999964e+01 9.750066813655641163e+05
1.014390000000000036e+01 9.861359061969070463e+05
1.018790000000000084e+01 9.975948549173426582e+05
1.023179999999999978e+01 1.009699123608358554e+06
1.027570000000000050e+01 1.019764258976729121e+06
1.031959999999999944e+01 1.023251352030990063e+06
1.036350000000000016e+01 1.021745464508587844e+06
1.040740000000000087e+01 1.022293987408962101e+06
1.045129999999999981e+01 1.027506669222109369e+06
1.049520000000000053e+01 1.034478831936070579e+06
1.053919999999999924e+01 1.042908618109557778e+06
1.058309999999999995e+01 1.053545142230945872e+06
1.062700000000000067e+01 1.063178623477351619e+06
1.067089999999999961e+01 1.068050178780799732e+06
1.071480000000000032e+01 1.067285035062927520e+06
1.075869999999999926e+01 1.064083992061478319e+06
1.080259999999999998e+01 1.060284137911495753e+06
1.084660000000000046e+01 1.055596770734187914e+06
1.089049999999999940e+01 1.049917045319877099e+06
1.093440000000000012e+01 1.043534524516446632e+06
1.097830000000000084e+01 1.037503236442057183e+06
1.102219999999999978e+01 1.032459081092529930e+06
1.106610000000000049e+01 1.027731288420687080e+06
1.110999999999999943e+01 1.023305718255392741e+06
1.115390000000000015e+01 1.017743462633009418e+06
1.119790000000000063e+01 1.011932895874389564e+06
1.124179999999999957e+01 1.009694516387778451e+06
1.128570000000000029e+01 1.011491464848705451e+06
1.132959999999999923e+01 1.013309890439679264e+06
1.137349999999999994e+01 1.012268106656016200e+06
1.141740000000000066e+01 1.008260315991101786e+06
1.146129999999999960e+01 1.000779269507025951e+06
1.150530000000000008e+01 9.897399442955359118e+05
1.154920000000000080e+01 9.778398573730633361e+05
1.159309999999999974e+01 9.668149641686674440e+05
1.163700000000000045e+01 9.562807867290757131e+05
1.168089999999999939e+01 9.474098445892579621e+05
1.172480000000000011e+01 9.419847964497942012e+05
1.176870000000000083e+01 9.395694032110309927e+05
1.181259999999999977e+01 9.403831321813411778e+05
1.185660000000000025e+01 9.434446091968484689e+05
1.190049999999999919e+01 9.479539310795646161e+05
1.194439999999999991e+01 9.537042755148194265e+05
1.198830000000000062e+01 9.578562332934674341e+05
1.203219999999999956e+01 9.580917382425620453e+05
1.207610000000000028e+01 9.573521441901880316e+05
1.211999999999999922e+01 9.590404190664913040e+05
1.216389999999999993e+01 9.624716235982028302e+05
1.220790000000000042e+01 9.662229125240028370e+05
1.225179999999999936e+01 9.710882953154365532e+05
1.229570000000000007e+01 9.767486114213066176e+05
1.233960000000000079e+01 9.827725931487445487e+05
1.238349999999999973e+01 9.895965136840031482e+05
1.242740000000000045e+01 9.972033482896786882e+05
1.247129999999999939e+01 1.003991069382632733e+06
1.251529999999999987e+01 1.008184948693362181e+06
1.255920000000000059e+01 1.012199284076867159e+06
1.260309999999999953e+01 1.019152475274971337e+06
1.264700000000000024e+01 1.029097653157102992e+06
1.269089999999999918e+01 1.040493192289547762e+06
1.273479999999999990e+01 1.055176539960071445e+06
1.277870000000000061e+01 1.074202713870886713e+06
1.282259999999999955e+01 1.091677337515597930e+06
1.286660000000000004e+01 1.102496195699092466e+06
1.291050000000000075e+01 1.106020918160335626e+06
1.295439999999999969e+01 1.103516662198215257e+06
1.299830000000000041e+01 1.096175780874877702e+06
1.304219999999999935e+01 1.086190102492618840e+06
1.308610000000000007e+01 1.076853236636546208e+06
1.313000000000000078e+01 1.066857453377902275e+06
1.317399999999999949e+01 1.054567291113721207e+06
1.321790000000000020e+01 1.043269917617976549e+06
1.326179999999999914e+01 1.033670073364555137e+06
1.330569999999999986e+01 1.022521710157163441e+06
1.334960000000000058e+01 1.007990849509519758e+06
1.339349999999999952e+01 9.931301795017422410e+05
1.343740000000000023e+01 9.812255946382308612e+05
1.348129999999999917e+01 9.737489845825325465e+05
1.352529999999999966e+01 9.700072501369488891e+05
1.356920000000000037e+01 9.672422946294002468e+05
1.361309999999999931e+01 9.637674169090586947e+05
1.365700000000000003e+01 9.595178130086391466e+05
1.370090000000000074e+01 9.543934825305934064e+05
1.374479999999999968e+01 9.484175483826246345e+05
1.378870000000000040e+01 9.431506658291098429e+05
1.383259999999999934e+01 9.417452416780807544e+05
1.387659999999999982e+01 9.470180893827055115e+05
1.392050000000000054e+01 9.569609753706841730e+05
1.396439999999999948e+01 9.683694252512069652e+05
1.400830000000000020e+01 9.802852722573629580e+05
1.405219999999999914e+01 9.921188809140790254e+05
1.409609999999999985e+01 1.003724623952253023e+06
1.414000000000000057e+01 1.016383289552196977e+06
1.418399999999999928e+01 1.031653094826423563e+06
1.422789999999999999e+01 1.047843592410366167e+06
1.427180000000000071e+01 1.061968145546355285e+06
1.431569999999999965e+01 1.076903248803399969e+06
1.435960000000000036e+01 1.093885002308627358e+06
1.440349999999999930e+01 1.108319260546421865e+06
1.444740000000000002e+01 1.116434922603318468e+06
1.449130000000000074e+01 1.116774865625330945e+06
1.453529999999999944e+01 1.109970752594955731e+06
1.457920000000000016e+01 1.100983544362604385e+06
1.462310000000000088e+01 1.095074990420552902e+06
1.466699999999999982e+01 1.095457741684075445e+06
1.471090000000000053e+01 1.104351563637538813e+06
1.475479999999999947e+01 1.118949772093113745e+06
1.479870000000000019e+01 1.132098649456313346e+06
1.484270000000000067e+01 1.141088597249957500e+06
1.488659999999999961e+01 1.146822139564305311e+06
1.493050000000000033e+01 1.148406194861122873e+06
1.497439999999999927e+01 1.143240703528590966e+06
1.501829999999999998e+01 1.131717882742299698e+06
1.506220000000000070e+01 1.118714990437832661e+06
1.510609999999999964e+01 1.110122629877862288e+06
1.515000000000000036e+01 1.108156092519489350e+06
1.519400000000000084e+01 1.110672923028066987e+06
1.523789999999999978e+01 1.113727549985714722e+06
1.528180000000000049e+01 1.113825202909758780e+06
1.532569999999999943e+01 1.112739520715497667e+06
1.536960000000000015e+01 1.114229679432224482e+06
1.541350000000000087e+01 1.117830648256065790e+06
1.545739999999999981e+01 1.121757226165163098e+06
1.550130000000000052e+01 1.125583894180316245e+06
1.554529999999999923e+01 1.128740198869597400e+06
1.558919999999999995e+01 1.132075812869062880e+06
1.563310000000000066e+01 1.138473487872886239e+06
1.567699999999999960e+01 1.149304990301552461e+06
1.572090000000000032e+01 1.161715667653067969e+06
1.576479999999999926e+01 1.173012963612389285e+06
1.580869999999999997e+01 1.182176353057073196e+06
1.585270000000000046e+01 1.189908803039255785e+06
1.589659999999999940e+01 1.197760850455408450e+06
1.594050000000000011e+01 1.206271905296281679e+06
1.598440000000000083e+01 1.212318257391330088e+06
1.602830000000000155e+01 1.214083624446559465e+06
1.607219999999999871e+01 1.214005544674294069e+06
1.611609999999999943e+01 1.215006697895296616e+06
1.616000000000000014e+01 1.215407667461010162e+06
1.620400000000000063e+01 1.213230528147008270e+06
1.624790000000000134e+01 1.207737476367856376e+06
1.629179999999999851e+01 1.198858284343533684e+06
1.633569999999999922e+01 1.187489483966019703e+06
1.637959999999999994e+01 1.175951706726615317e+06
1.642350000000000065e+01 1.166368782803290524e+06
1.646740000000000137e+01 1.160033558628492057e+06
1.651139999999999830e+01 1.155546797741889488e+06
1.655529999999999902e+01 1.150742905173650011e+06
1.659919999999999973e+01 1.143779176028564107e+06
1.664310000000000045e+01 1.134728858582939254e+06
1.668700000000000117e+01 1.126484913094673771e+06
1.673089999999999833e+01 1.120672668880968122e+06
1.677479999999999905e+01 1.116676680883936118e+06
1.681869999999999976e+01 1.113906126899931114e+06
1.686270000000000024e+01 1.112948626300437143e+06
1.690660000000000096e+01 1.114163941212273436e+06
1.695050000000000168e+01 1.115770230000300799e+06
1.699439999999999884e+01 1.115272638553269673e+06
1.703829999999999956e+01 1.111145053759336472e+06
1.708220000000000027e+01 1.104782866944608511e+06
1.712610000000000099e+01 1.098474632673417684e+06
1.717000000000000171e+01 1.092368007592985174e+06
1.721399999999999864e+01 1.086650044077817816e+06
1.725789999999999935e+01 1.082576778637845302e+06
1.730180000000000007e+01 1.078860828174080234e+06
1.734570000000000078e+01 1.073475692252175184e+06
1.738960000000000150e+01 1.067699395157176070e+06
1.743349999999999866e+01 1.062486822365670232e+06
1.747739999999999938e+01 1.058361136727718404e+06
