# energy(eV) alpha
0.000000000000000000e+00 0.000000000000000000e+00
3.679999999999999938e-02 5.853109961174846054e-01
7.370000000000000162e-02 2.344328782395340927e+00
1.105000000000000010e-01 5.369549458991392576e+00
1.474000000000000032e-01 9.635994324262302513e+00
1.842000000000000026e-01 1.496874504486035562e+01
2.210999999999999910e-01 2.167426854074604847e+01
2.579000000000000181e-01 2.983103436569376399e+01
2.948000000000000065e-01 3.851518929597867213e+01
3.316000000000000059e-01 4.916476598717654412e+01
3.684999999999999942e-01 6.079681977263444281e+01
4.052999999999999936e-01 7.399504103813767131e+01
4.421999999999999820e-01 8.811036169139427443e+01
4.789999999999999813e-01 1.038481853492012732e+02
5.159000000000000252e-01 1.208899764258068075e+02
5.526999999999999691e-01 1.391873767918360159e+02
5.896000000000000130e-01 1.587848039460991743e+02
6.263999999999999568e-01 1.801771545847535094e+02
6.633000000000000007e-01 2.035130887054357061e+02
7.000999999999999446e-01 2.282076779039746839e+02
7.369999999999999885e-01 2.543221698157001924e+02
7.738000000000000433e-01 2.817797156281823163e+02
8.106999999999999762e-01 3.113584737866743808e+02
8.475000000000000311e-01 3.423303374480312868e+02
8.843999999999999639e-01 3.755419782092063201e+02
9.212000000000000188e-01 4.101890793278738556e+02
9.580999999999999517e-01 4.480253187101357639e+02
9.949000000000000066e-01 4.865394378468860737e+02
1.031800000000000050e+00 5.275162308925182515e+02
1.068599999999999994e+00 5.709444270729089794e+02
1.105499999999999927e+00 6.170125327149777377e+02
1.142300000000000093e+00 6.646889491031510033e+02
1.179200000000000026e+00 7.161360026059311394e+02
1.215999999999999970e+00 7.692877118039688185e+02
1.252899999999999903e+00 8.253506964142354718e+02
1.289700000000000069e+00 8.853759896120267285e+02
1.326600000000000001e+00 9.473665033319465465e+02
1.363399999999999945e+00 1.013535831480401157e+03
1.400300000000000100e+00 1.084176332584302600e+03
1.437100000000000044e+00 1.156831393884778890e+03
1.473999999999999977e+00 1.234152096288395796e+03
1.510799999999999921e+00 1.314848270345438550e+03
1.547700000000000076e+00 1.401790901036031983e+03
1.584500000000000020e+00 1.492328301955007419e+03
1.621399999999999952e+00 1.589472691443026179e+03
1.658199999999999896e+00 1.691826812654345531e+03
1.695000000000000062e+00 1.799651000464280742e+03
1.731899999999999995e+00 1.914607578054272835e+03
1.768699999999999939e+00 2.036715203290940508e+03
1.805600000000000094e+00 2.166390783996142090e+03
1.842400000000000038e+00 2.305135388178483026e+03
1.879299999999999971e+00 2.451877242607547942e+03
1.916099999999999914e+00 2.609752156157970148e+03
1.953000000000000069e+00 2.777706381522201355e+03
1.989800000000000013e+00 2.960668821182383454e+03
2.026699999999999946e+00 3.152632054564365717e+03
2.063499999999999890e+00 3.363677807655252309e+03
2.100400000000000045e+00 3.592942051208840439e+03
2.137199999999999989e+00 3.840513731086857661e+03
2.174100000000000144e+00 4.108954747267036510e+03
2.210900000000000087e+00 4.405580988765967959e+03
2.247799999999999798e+00 4.729617003796915924e+03
2.284600000000000186e+00 5.090481889678553671e+03
2.321499999999999897e+00 5.487487977441571275e+03
2.358299999999999841e+00 5.936126153209400400e+03
2.395199999999999996e+00 6.441625193001119442e+03
2.431999999999999940e+00 7.018100325177390005e+03
2.468900000000000095e+00 7.686870514051332066e+03
2.505700000000000038e+00 8.470602519756435868e+03
2.542600000000000193e+00 9.405512247882381416e+03
2.579400000000000137e+00 1.054936933417341425e+04
2.616299999999999848e+00 1.198289902530173094e+04
2.653099999999999792e+00 1.381808390689456610e+04
2.689999999999999947e+00 1.615997744309124937e+04
2.726799999999999891e+00 1.899934972901598667e+04
2.763700000000000045e+00 2.238343556019665266e+04
2.800499999999999989e+00 2.679122074842412985e+04
2.837400000000000144e+00 3.285749287351742532e+04
2.874200000000000088e+00 4.040333255037781782e+04
2.911099999999999799e+00 4.848920664983039023e+04
2.947900000000000187e+00 5.675081409880462161e+04
2.984799999999999898e+00 6.542985087732288957e+04
3.021599999999999842e+00 7.475100718391890405e+04
3.058499999999999996e+00 8.413962429633844295e+04
3.095299999999999940e+00 9.088349574262127862e+04
3.132200000000000095e+00 9.446777399914379930e+04
3.169000000000000039e+00 9.754136383422017389e+04
3.205900000000000194e+00 1.025623284554827551e+05
3.242700000000000138e+00 1.080111386225195165e+05
3.279599999999999849e+00 1.110633688686514652e+05
3.316399999999999793e+00 1.128139993670705881e+05
3.353200000000000180e+00 1.152391484475556208e+05
3.390099999999999891e+00 1.199923011644776270e+05
3.426899999999999835e+00 1.294663264526939893e+05
3.463799999999999990e+00 1.462743143097884313e+05
3.500599999999999934e+00 1.704587235034559271e+05
3.537500000000000089e+00 1.972016964546836680e+05
3.574300000000000033e+00 2.191223279632577614e+05
3.611200000000000188e+00 2.301880983723856334e+05
3.648000000000000131e+00 2.295022792083026725e+05
3.684899999999999842e+00 2.222804056830782501e+05
3.721699999999999786e+00 2.138203182002275425e+05
3.758599999999999941e+00 2.057391132596325770e+05
3.795399999999999885e+00 2.018164832502561330e+05
3.832300000000000040e+00 2.057633542226148129e+05
3.869099999999999984e+00 2.173298246354731964e+05
3.906000000000000139e+00 2.352037551831041346e+05
3.942800000000000082e+00 2.565380525233551161e+05
3.979699999999999793e+00 2.761628157007418922e+05
4.016499999999999737e+00 2.891031513659918564e+05
4.053399999999999892e+00 2.930744629637816106e+05
4.090200000000000280e+00 2.929187318127212347e+05
4.127100000000000435e+00 2.949126559215899324e+05
4.163899999999999935e+00 2.966104484417949570e+05
4.200800000000000090e+00 2.939835617293405230e+05
4.237599999999999589e+00 2.892204839777938905e+05
4.274499999999999744e+00 2.855608256829216261e+05
4.311300000000000132e+00 2.835216395349446102e+05
4.348200000000000287e+00 2.833890961092521902e+05
4.384999999999999787e+00 2.859099982476729201e+05
4.421899999999999942e+00 2.904045589590710588e+05
4.458700000000000330e+00 2.965726342342497665e+05
4.495599999999999596e+00 3.054958412679305184e+05
4.532399999999999984e+00 3.167107917230231105e+05
4.569300000000000139e+00 3.288910710199954920e+05
4.606099999999999639e+00 3.421592093591743615e+05
4.642999999999999794e+00 3.569579473772122292e+05
4.679800000000000182e+00 3.722641741832605330e+05
4.716700000000000337e+00 3.860021753573750611e+05
4.753499999999999837e+00 3.959341622155433288e+05
4.790399999999999991e+00 4.020309263093824848e+05
4.827200000000000379e+00 4.052186878554520663e+05
4.864099999999999646e+00 4.061227773493665736e+05
4.900900000000000034e+00 4.053896854297547834e+05
4.937800000000000189e+00 4.037213639678733307e+05
4.974599999999999689e+00 4.020190601462323684e+05
5.011400000000000077e+00 4.010401455635845196e+05
5.048300000000000232e+00 4.013182271515955217e+05
5.085099999999999731e+00 4.028579728048705147e+05
5.121999999999999886e+00 4.049881121417876566e+05
5.158800000000000274e+00 4.074538429099105415e+05
5.195700000000000429e+00 4.111372803786801524e+05
5.232499999999999929e+00 4.172291093927903567e+05
5.269400000000000084e+00 4.257543520221882500e+05
5.306199999999999584e+00 4.360945476002916112e+05
5.343099999999999739e+00 4.473183530396596761e+05
5.379900000000000126e+00 4.583359246247087140e+05
5.416800000000000281e+00 4.684083741179324570e+05
5.453599999999999781e+00 4.765288462666030973e+05
5.490499999999999936e+00 4.821813881295794854e+05
5.527300000000000324e+00 4.858298814872583025e+05
5.564199999999999591e+00 4.882716710868572700e+05
5.600999999999999979e+00 4.901976174880534527e+05
5.637900000000000134e+00 4.919593682536726119e+05
5.674699999999999633e+00 4.931008853481279803e+05
5.711599999999999788e+00 4.930139422281495063e+05
5.748400000000000176e+00 4.905351410941572976e+05
5.785300000000000331e+00 4.851429122953258920e+05
5.822099999999999831e+00 4.785286787166973809e+05
5.858999999999999986e+00 4.718403061635543127e+05
5.895800000000000374e+00 4.642435047838867176e+05
5.932699999999999640e+00 4.555648490300917183e+05
5.969500000000000028e+00 4.467294010073143290e+05
6.006400000000000183e+00 4.381251943762014271e+05
6.043199999999999683e+00 4.306598123781587346e+05
6.080099999999999838e+00 4.256166083364275983e+05
6.116900000000000226e+00 4.229878486555857235e+05
6.153800000000000381e+00 4.212020146502857679e+05
6.190599999999999881e+00 4.178580068690518965e+05
6.227500000000000036e+00 4.120361098192955833e+05
6.264300000000000423e+00 4.056395475473571569e+05
6.301199999999999690e+00 4.009600228283445467e+05
6.338000000000000078e+00 3.984415841625615722e+05
6.374900000000000233e+00 3.973887180351518909e+05
6.411699999999999733e+00 3.977658394344049157e+05
6.448599999999999888e+00 3.998603172548367875e+05
6.485400000000000276e+00 4.030846031634958345e+05
6.522300000000000431e+00 4.060227637913162471e+05
6.559099999999999930e+00 4.082112797299041413e+05
6.596000000000000085e+00 4.101274236136818072e+05
6.632799999999999585e+00 4.123521038628810202e+05
6.669599999999999973e+00 4.156310020586829633e+05
6.706500000000000128e+00 4.196814628073768690e+05
6.743299999999999628e+00 4.230898189438877744e+05
6.780199999999999783e+00 4.249247482097477186e+05
6.817000000000000171e+00 4.251184469257929013e+05
6.853900000000000325e+00 4.243086549657642609e+05
6.890699999999999825e+00 4.235662290917643113e+05
6.927599999999999980e+00 4.231948123419930926e+05
6.964400000000000368e+00 4.220457300967868068e+05
7.001299999999999635e+00 4.189871070698627154e+05
7.038100000000000023e+00 4.140500928951937822e+05
7.075000000000000178e+00 4.082534989195173839e+05
7.111799999999999677e+00 4.028428673349446617e+05
7.148699999999999832e+00 3.985187777297818102e+05
7.185500000000000220e+00 3.950052816171802115e+05
7.222400000000000375e+00 3.916168485368943657e+05
7.259199999999999875e+00 3.881799425536760245e+05
7.296100000000000030e+00 3.853392415133201284e+05
7.332900000000000418e+00 3.838083905006183777e+05
7.369799999999999685e+00 3.841979470600838540e+05
7.406600000000000072e+00 3.869572503821949940e+05
7.443500000000000227e+00 3.919556795232445002e+05
7.480299999999999727e+00 3.981795898165727849e+05
7.517199999999999882e+00 4.045651478211394860e+05
7.554000000000000270e+00 4.102945774613808608e+05
7.590900000000000425e+00 4.144094936737174285e+05
7.627699999999999925e+00 4.164159878152210731e+05
7.664600000000000080e+00 4.169384879963723361e+05
7.701399999999999579e+00 4.171221683828629320e+05
7.738299999999999734e+00 4.178352830922700814e+05
7.775100000000000122e+00 4.197632303207324585e+05
7.812000000000000277e+00 4.237104924846469075e+05
7.848799999999999777e+00 4.301106169555492233e+05
7.885699999999999932e+00 4.392150945903667016e+05
7.922500000000000320e+00 4.509766700877835392e+05
7.959399999999999586e+00 4.651727274715406238e+05
7.996199999999999974e+00 4.820683075774759054e+05
8.033099999999999241e+00 5.021297531461543986e+05
8.069900000000000517e+00 5.240186561652651872e+05
8.106799999999999784e+00 5.444593232377733802e+05
8.143599999999999284e+00 5.605454055160497082e+05
8.180500000000000327e+00 5.712956825799270300e+05
8.217299999999999827e+00 5.768832053823305760e+05
8.254200000000000870e+00 5.776336581887060311e+05
8.291000000000000369e+00 5.745797325680243084e+05
8.327799999999999869e+00 5.698598942143421154e+05
8.364699999999999136e+00 5.657192334561659954e+05
8.401500000000000412e+00 5.627225984676630469e+05
8.438399999999999679e+00 5.605975566139419097e+05
8.475199999999999179e+00 5.597583642568633659e+05
8.512100000000000222e+00 5.602538823036584072e+05
8.548899999999999721e+00 5.613323261253996752e+05
8.585800000000000765e+00 5.628511162472740980e+05
8.622600000000000264e+00 5.657188380993579049e+05
8.659499999999999531e+00 5.707429576888089068e+05
8.696300000000000807e+00 5.775191466676426353e+05
8.733200000000000074e+00 5.853866082807286875e+05
8.769999999999999574e+00 5.939280096473227022e+05
8.806900000000000617e+00 6.020164650233288994e+05
8.843700000000000117e+00 6.087586146782233845e+05
8.880599999999999383e+00 6.146836862274189480e+05
8.917400000000000659e+00 6.201587408224309329e+05
8.954299999999999926e+00 6.254999266853613080e+05
8.991099999999999426e+00 6.315822329415658023e+05
9.028000000000000469e+00 6.389381461786974687e+05
9.064799999999999969e+00 6.476147026964920806e+05
9.101699999999999235e+00 6.570060481248423457e+05
9.138500000000000512e+00 6.657506335066123866e+05
9.175399999999999778e+00 6.729926325156606035e+05
9.212199999999999278e+00 6.785872677861710545e+05
9.249100000000000321e+00 6.826564124595992034e+05
9.285899999999999821e+00 6.852349239114340162e+05
9.322800000000000864e+00 6.864864382295017131e+05
9.359600000000000364e+00 6.881053149981257739e+05
9.396499999999999631e+00 6.931103093318686588e+05
9.433299999999999130e+00 7.034498229975536233e+05
9.470200000000000173e+00 7.183964504427858628e+05
9.506999999999999673e+00 7.356626200937109534e+05
9.543900000000000716e+00 7.531827633470402798e+05
9.580700000000000216e+00 7.698783365676581161e+05
9.617599999999999483e+00 7.858985493177338503e+05
9.654400000000000759e+00 8.012727527703529922e+05
9.691300000000000026e+00 8.150867359884888865e+05
9.728099999999999525e+00 8.264308458152606618e+05
9.765000000000000568e+00 8.354428041198459687e+05
9.801800000000000068e+00 8.427116812740999740e+05
9.838699999999999335e+00 8.480700016583818942e+05
9.875500000000000611e+00 8.510481480802919250e+05
9.912399999999999878e+00 8.514181119566903217e+05
9.949199999999999378e+00 8.494415431965463795e+05
9.986000000000000654e+00 8.464312746882758802e+05
1.002289999999999992e+01 8.438786568199623143e+05
1.005969999999999942e+01 8.427993744207978016e+05
1.009660000000000046e+01 8.435925736357715214e+05
1.013339999999999996e+01 8.462091438274042448e+05
1.017029999999999923e+01 8.507520781924650073e+05
1.020710000000000051e+01 8.574654796402549837e+05
1.024399999999999977e+01 8.659524379334519617e+05
1.028079999999999927e+01 8.756234774760789005e+05
1.031770000000000032e+01 8.861940453383624554e+05
1.035449999999999982e+01 8.965921949530197307e+05
1.039140000000000086e+01 9.055385727479531197e+05
1.042820000000000036e+01 9.129947639548559673e+05
1.046509999999999962e+01 9.206913557073199190e+05
1.050189999999999912e+01 9.303051925661168061e+05
1.053880000000000017e+01 9.420743392045688815e+05
1.057559999999999967e+01 9.550289897266164189e+05
1.061250000000000071e+01 9.675775056143292459e+05
1.064930000000000021e+01 9.773141157285273075e+05
1.068619999999999948e+01 9.828340718995344359e+05
1.072300000000000075e+01 9.844008398402867606e+05
1.075990000000000002e+01 9.842509925936249783e+05
1.079669999999999952e+01 9.852257136240833206e+05
1.083360000000000056e+01 9.885531766041332157e+05
1.087040000000000006e+01 9.938221677997017978e+05
1.090729999999999933e+01 9.997496566669601016e+05
1.094410000000000061e+01 1.005689803340171115e+06
1.098099999999999987e+01 1.010982563209703192e+06
1.101779999999999937e+01 1.014086817498345743e+06
1.105470000000000041e+01 1.014458009636932402e+06
1.109149999999999991e+01 1.013324189845142653e+06
1.112839999999999918e+01 1.012577539842760423e+06
1.116520000000000046e+01 1.012459307167621795e+06
1.120209999999999972e+01 1.011489975524953334e+06
1.123889999999999922e+01 1.008825362553865300e+06
1.127580000000000027e+01 1.004980659554953570e+06
1.131259999999999977e+01 1.001483827157484950e+06
1.134950000000000081e+01 9.998193918804030400e+05
1.138630000000000031e+01 1.000077957793572918e+06
1.142319999999999958e+01 1.001797986648998805e+06
1.146000000000000085e+01 1.004589001022957265e+06
1.149690000000000012e+01 1.007772003290492226e+06
1.153369999999999962e+01 1.010926838597771130e+06
1.157060000000000066e+01 1.013734337149979663e+06
1.160740000000000016e+01 1.014913412556938711e+06
1.164419999999999966e+01 1.013736297986542457e+06
1.168110000000000070e+01 1.010841892768549849e+06
1.171790000000000020e+01 1.007496763606555643e+06
1.175479999999999947e+01 1.005289199578402331e+06
1.179160000000000075e+01 1.004568191101521719e+06
1.182850000000000001e+01 1.004701113625201397e+06
1.186529999999999951e+01 1.005032227540542721e+06
1.190220000000000056e+01 1.006100676664833794e+06
1.193900000000000006e+01 1.008267907477467787e+06
1.197589999999999932e+01 1.011316373025178094e+06
1.201270000000000060e+01 1.014120845515509951e+06
1.204959999999999987e+01 1.015273015100551769e+06
1.208639999999999937e+01 1.014880319252860150e+06
1.212330000000000041e+01 1.014532911566454335e+06
1.216009999999999991e+01 1.015302449283998925e+06
1.219699999999999918e+01 1.016986099373839912e+06
1.223380000000000045e+01 1.018971516959496425e+06
1.227069999999999972e+01 1.021521407596579986e+06
1.230749999999999922e+01 1.025987887181911035e+06
1.234440000000000026e+01 1.033004029322719318e+06
1.238119999999999976e+01 1.042189238801082363e+06
1.241810000000000080e+01 1.053799720699950354e+06
1.245490000000000030e+01 1.067207506940171355e+06
1.249179999999999957e+01 1.080189112535397755e+06
1.252860000000000085e+01 1.091897689308481524e+06
1.256550000000000011e+01 1.102481655800949549e+06
1.260229999999999961e+01 1.111344339591734810e+06
1.263920000000000066e+01 1.117451589183961973e+06
1.267600000000000016e+01 1.120304934539418900e+06
1.271289999999999942e+01 1.120227894174146466e+06
1.274970000000000070e+01 1.118836278509303695e+06
1.278659999999999997e+01 1.118164154002192430e+06
1.282339999999999947e+01 1.118603580219533527e+06
1.286030000000000051e+01 1.120250572867559502e+06
1.289710000000000001e+01 1.123162671532640001e+06
1.293399999999999928e+01 1.126715211081342772e+06
1.297080000000000055e+01 1.129796121639124583e+06
1.300769999999999982e+01 1.132142337607550202e+06
1.304449999999999932e+01 1.134534941488270648e+06
1.308140000000000036e+01 1.138477243031832390e+06
1.311819999999999986e+01 1.143710716392958304e+06
1.315509999999999913e+01 1.149293376073251711e+06
1.319190000000000040e+01 1.153995142216406530e+06
1.322879999999999967e+01 1.156291747676705243e+06
1.326559999999999917e+01 1.155825838675132720e+06
1.330240000000000045e+01 1.153608871363611892e+06
1.333929999999999971e+01 1.149923035269101383e+06
1.337609999999999921e+01 1.144550908863708610e+06
1.341300000000000026e+01 1.138859485470557818e+06
1.344979999999999976e+01 1.136333172759479843e+06
1.348670000000000080e+01 1.138113098026599037e+06
1.352350000000000030e+01 1.141074804517378099e+06
1.356039999999999957e+01 1.141948578658066457e+06
1.359720000000000084e+01 1.139889089750821004e+06
1.363410000000000011e+01 1.136534270644621458e+06
1.367089999999999961e+01 1.133080436872297432e+06
1.370780000000000065e+01 1.127891369210599456e+06
1.374460000000000015e+01 1.119705008892621845e+06
1.378149999999999942e+01 1.109144074857583037e+06
1.381830000000000069e+01 1.097017742218409432e+06
1.385519999999999996e+01 1.084046284866550704e+06
1.389199999999999946e+01 1.071851089753500884e+06
1.392890000000000050e+01 1.062567174051004928e+06
1.396570000000000000e+01 1.057345529598999303e+06
1.400259999999999927e+01 1.056106209423318272e+06
1.403940000000000055e+01 1.057687928159161936e+06
1.407629999999999981e+01 1.061216422025519423e+06
1.411309999999999931e+01 1.067057843578448519e+06
1.415000000000000036e+01 1.075145299994977657e+06
1.418679999999999986e+01 1.084513382255636388e+06
1.422369999999999912e+01 1.094740231956157833e+06
1.426050000000000040e+01 1.105675106203362346e+06
1.429739999999999966e+01 1.116526062048439402e+06
1.433419999999999916e+01 1.127483867856213357e+06
1.437110000000000021e+01 1.139654287229425739e+06
1.440789999999999971e+01 1.152940885941952234e+06
1.444480000000000075e+01 1.165815125339441933e+06
1.448160000000000025e+01 1.178142279948942363e+06
1.451849999999999952e+01 1.192030452586625936e+06
1.455530000000000079e+01 1.207876605461259140e+06
1.459220000000000006e+01 1.222730804911222309e+06
1.462899999999999956e+01 1.234026118252287386e+06
1.466590000000000060e+01 1.240616585355355870e+06
