# energy(eV) alpha
0.000000000000000000e+00 0.000000000000000000e+00
3.300000000000000155e-02 6.458213798108755066e-01
6.590000000000000024e-02 2.579251441145814727e+00
9.890000000000000180e-02 5.805784616525765607e+00
1.318000000000000005e-01 1.031504268989798945e+01
1.648000000000000020e-01 1.626000096418832896e+01
1.978000000000000036e-01 2.354945033046982417e+01
2.306999999999999884e-01 3.197214362052283931e+01
2.636999999999999900e-01 4.191637971989243283e+01
2.965999999999999748e-01 5.318199983698549715e+01
3.296000000000000041e-01 6.580098707564856397e+01
3.625999999999999779e-01 7.975476324220809943e+01
3.955000000000000182e-01 9.501653415311102435e+01
4.284999999999999920e-01 1.119929029792177033e+02
4.613999999999999768e-01 1.307131940322116748e+02
4.944000000000000061e-01 1.504735876065042532e+02
5.273999999999999799e-01 1.725013140858680174e+02
5.603000000000000203e-01 1.954988828487109060e+02
5.933000000000000496e-01 2.204512113625792153e+02
6.261999999999999789e-01 2.463015496072659118e+02
6.592000000000000082e-01 2.752709744351758445e+02
6.922000000000000375e-01 3.052219661686362997e+02
7.250999999999999668e-01 3.372458070455297729e+02
7.580999999999999961e-01 3.715025903415380526e+02
7.910000000000000364e-01 4.073084095235246309e+02
8.239999999999999547e-01 4.454497966073673751e+02
8.569999999999999840e-01 4.866660235679819380e+02
8.899000000000000243e-01 5.288122770405772144e+02
9.229000000000000536e-01 5.742297994414947198e+02
9.557999999999999829e-01 6.213529081938453373e+02
9.888000000000000123e-01 6.727757559529912896e+02
1.021800000000000042e+00 7.260951753328037057e+02
1.054699999999999971e+00 7.821074792292779421e+02
1.087699999999999889e+00 8.419311482479131428e+02
1.120600000000000041e+00 9.046156298201617574e+02
1.153599999999999959e+00 9.713447574844922201e+02
1.186600000000000099e+00 1.042171749419262142e+03
1.219500000000000028e+00 1.116132064206257610e+03
1.252499999999999947e+00 1.193451913514134276e+03
1.285400000000000098e+00 1.277190610401916501e+03
1.318400000000000016e+00 1.364554913683274663e+03
1.351399999999999935e+00 1.457717609685626485e+03
1.384300000000000086e+00 1.557903629060794856e+03
1.417300000000000004e+00 1.662085303906578702e+03
1.450199999999999934e+00 1.776034263012914607e+03
1.483200000000000074e+00 1.894299494702690708e+03
1.516199999999999992e+00 2.021757691601314718e+03
1.549099999999999921e+00 2.158546528475741525e+03
1.582100000000000062e+00 2.306539257848114630e+03
1.614999999999999991e+00 2.464479369916620271e+03
1.647999999999999909e+00 2.634294229271369659e+03
1.681000000000000050e+00 2.818827148574797320e+03
1.713899999999999979e+00 3.018397713601072610e+03
1.746899999999999897e+00 3.236512548600118407e+03
1.779800000000000049e+00 3.477654454962469572e+03
1.812799999999999967e+00 3.739956677169760951e+03
1.845800000000000107e+00 4.034053720929450719e+03
1.878700000000000037e+00 4.360576186210895685e+03
1.911699999999999955e+00 4.731395567173622112e+03
1.944600000000000106e+00 5.156363223799045954e+03
1.977600000000000025e+00 5.646687743835366746e+03
2.010499999999999954e+00 6.225375560082506126e+03
2.043499999999999872e+00 6.927020968948458176e+03
2.076499999999999790e+00 7.796287106679941644e+03
2.109399999999999942e+00 8.894193081285440712e+03
2.142399999999999860e+00 1.028789020284670551e+04
2.175300000000000011e+00 1.196085015189392834e+04
2.208299999999999930e+00 1.374213635497963332e+04
2.241299999999999848e+00 1.552972368116755388e+04
2.274199999999999999e+00 1.762689741965852954e+04
2.307199999999999918e+00 2.030877816038465608e+04
2.340100000000000069e+00 2.355423760194066563e+04
2.373099999999999987e+00 2.748314644742926612e+04
2.406099999999999905e+00 3.238039316919140401e+04
2.439000000000000057e+00 3.795292206070134125e+04
2.471999999999999975e+00 4.301336109615463647e+04
2.504900000000000126e+00 4.635697904088910582e+04
2.537900000000000045e+00 4.849018656499180361e+04
2.570899999999999963e+00 5.146337940507384337e+04
2.603800000000000114e+00 5.630168044405565161e+04
2.636800000000000033e+00 6.234287968543799070e+04
2.669700000000000184e+00 6.871436407848481031e+04
2.702700000000000102e+00 7.497105356003344059e+04
2.735700000000000021e+00 8.023717246715190413e+04
2.768600000000000172e+00 8.251996311606655945e+04
2.801600000000000090e+00 8.136652040447921900e+04
2.834499999999999797e+00 7.976216744581058447e+04
2.867500000000000160e+00 8.106211592884246784e+04
2.900500000000000078e+00 8.656441859651633422e+04
2.933399999999999785e+00 9.591017474020934606e+04
2.966400000000000148e+00 1.075872251722448127e+05
2.999299999999999855e+00 1.183334667641207780e+05
3.032300000000000217e+00 1.253014022573966795e+05
3.065300000000000136e+00 1.293371493568798469e+05
3.098199999999999843e+00 1.317163229117431911e+05
3.131200000000000205e+00 1.330773452001811529e+05
3.164099999999999913e+00 1.354937206116652233e+05
3.197099999999999831e+00 1.405367351984674169e+05
3.230100000000000193e+00 1.488115076553128893e+05
3.262999999999999901e+00 1.609681765483992931e+05
3.295999999999999819e+00 1.757049942288113234e+05
3.328899999999999970e+00 1.897010275758619828e+05
3.361899999999999888e+00 2.003307683592248068e+05
3.394899999999999807e+00 2.064131293400252471e+05
3.427799999999999958e+00 2.078951784632602648e+05
3.460799999999999876e+00 2.058283286173213564e+05
3.493700000000000028e+00 2.036593311679043691e+05
3.526699999999999946e+00 2.056214586332059407e+05
3.559699999999999864e+00 2.136380871165156423e+05
3.592600000000000016e+00 2.255674073043590470e+05
3.625599999999999934e+00 2.367562094061260577e+05
3.658500000000000085e+00 2.443549238832249830e+05
3.691500000000000004e+00 2.486295965052336105e+05
3.724499999999999922e+00 2.512990815253106994e+05
3.757400000000000073e+00 2.557920374565664388e+05
3.790399999999999991e+00 2.649964256716578966e+05
3.823300000000000143e+00 2.784931505579240620e+05
3.856300000000000061e+00 2.930399884085682570e+05
3.889299999999999979e+00 3.051276370965686510e+05
3.922200000000000131e+00 3.130909070320436731e+05
3.955200000000000049e+00 3.167534913997449912e+05
3.988100000000000200e+00 3.176651077727443189e+05
4.021099999999999675e+00 3.185496521066616988e+05
4.054100000000000037e+00 3.206948618481263984e+05
4.086999999999999744e+00 3.240166180831202073e+05
4.120000000000000107e+00 3.286717960112823057e+05
4.152899999999999814e+00 3.332661484106523567e+05
4.185900000000000176e+00 3.350232363785986090e+05
4.218899999999999650e+00 3.346149790461089578e+05
4.251800000000000246e+00 3.359713546644803719e+05
4.284799999999999720e+00 3.407936237110693473e+05
4.317700000000000315e+00 3.465136992943082005e+05
4.350699999999999790e+00 3.514246999999274849e+05
4.383700000000000152e+00 3.582785626526607084e+05
4.416599999999999859e+00 3.678052224395175581e+05
4.449600000000000222e+00 3.769664896075841389e+05
4.482499999999999929e+00 3.838380942674068501e+05
4.515500000000000291e+00 3.887178081642140169e+05
4.548499999999999766e+00 3.915829341535350541e+05
4.581400000000000361e+00 3.928572365522680338e+05
4.614399999999999835e+00 3.962233118629424716e+05
4.647300000000000431e+00 4.052334708842606633e+05
4.680299999999999905e+00 4.204879138902193517e+05
4.713300000000000267e+00 4.402928976034569205e+05
4.746199999999999974e+00 4.611908578454540693e+05
4.779200000000000337e+00 4.783835677257630159e+05
4.812100000000000044e+00 4.886252639237082331e+05
4.845100000000000406e+00 4.936161397190385615e+05
4.878099999999999881e+00 4.981714391829548986e+05
4.910999999999999588e+00 5.047129354544850648e+05
4.943999999999999950e+00 5.106897919914685772e+05
4.976899999999999658e+00 5.121596030433772830e+05
5.009900000000000020e+00 5.082632558132775011e+05
5.042900000000000382e+00 5.006017557703769999e+05
5.075800000000000090e+00 4.912958712447566795e+05
5.108799999999999564e+00 4.828236507470075157e+05
5.141700000000000159e+00 4.756270497675787774e+05
5.174699999999999633e+00 4.685445876626771642e+05
5.207699999999999996e+00 4.623941510920924484e+05
5.240599999999999703e+00 4.587414015222694143e+05
5.273600000000000065e+00 4.575115248656118056e+05
5.306499999999999773e+00 4.583977466774125351e+05
5.339500000000000135e+00 4.615557298625985277e+05
5.372499999999999609e+00 4.656543593700435013e+05
5.405400000000000205e+00 4.684224109273172799e+05
5.438399999999999679e+00 4.692021891002715565e+05
5.471300000000000274e+00 4.685141502750881482e+05
5.504299999999999748e+00 4.672024682365912595e+05
5.537300000000000111e+00 4.674625813520209049e+05
5.570199999999999818e+00 4.710031257074725581e+05
5.603200000000000180e+00 4.766478659400222241e+05
5.636099999999999888e+00 4.814169439014599775e+05
5.669100000000000250e+00 4.829814365003166022e+05
5.701999999999999957e+00 4.809986196387679665e+05
5.735000000000000320e+00 4.762702589476955472e+05
5.767999999999999794e+00 4.691156332350312732e+05
5.800900000000000389e+00 4.598935338568227016e+05
5.833899999999999864e+00 4.501140534054335440e+05
5.866799999999999571e+00 4.414308541325359838e+05
5.899799999999999933e+00 4.348461920022476115e+05
5.932800000000000296e+00 4.308060529011750477e+05
5.965700000000000003e+00 4.285282257965705940e+05
5.998700000000000365e+00 4.261599460861491389e+05
6.031600000000000072e+00 4.219002987109296373e+05
6.064600000000000435e+00 4.139416992783491150e+05
6.097599999999999909e+00 4.013594487523295102e+05
6.130499999999999616e+00 3.858750980397072271e+05
6.163499999999999979e+00 3.713928706117761903e+05
6.196399999999999686e+00 3.608139000939363032e+05
6.229400000000000048e+00 3.541289595807666192e+05
6.262400000000000411e+00 3.500150857889291947e+05
6.295300000000000118e+00 3.473200215807504137e+05
6.328299999999999592e+00 3.448015984273773502e+05
6.361200000000000188e+00 3.422392876719154883e+05
6.394199999999999662e+00 3.405970722242269549e+05
6.427200000000000024e+00 3.405762941582602798e+05
6.460099999999999731e+00 3.424381186338901171e+05
6.493100000000000094e+00 3.458995701460271957e+05
6.525999999999999801e+00 3.493583905448007863e+05
6.559000000000000163e+00 3.512316270261537866e+05
6.591999999999999638e+00 3.521541604988097097e+05
6.624900000000000233e+00 3.533089374030556064e+05
6.657899999999999707e+00 3.548537663199012168e+05
6.690800000000000303e+00 3.566961144932493917e+05
6.723799999999999777e+00 3.591813043452634593e+05
6.756800000000000139e+00 3.623542226469599991e+05
6.789699999999999847e+00 3.656415478494529962e+05
6.822700000000000209e+00 3.687243907807212090e+05
6.855599999999999916e+00 3.727195810487471172e+05
6.888600000000000279e+00 3.787220738002762664e+05
6.921599999999999753e+00 3.859789488071880769e+05
6.954500000000000348e+00 3.927012832029627170e+05
6.987499999999999822e+00 3.976492716796158929e+05
7.020400000000000418e+00 3.998590346165637602e+05
7.053399999999999892e+00 3.989549270549609791e+05
7.086400000000000254e+00 3.958928717065542005e+05
7.119299999999999962e+00 3.921568331078352057e+05
7.152300000000000324e+00 3.887582589159702184e+05
7.185200000000000031e+00 3.851034062143055489e+05
7.218200000000000394e+00 3.800989686936186044e+05
7.251199999999999868e+00 3.735558146698012133e+05
7.284099999999999575e+00 3.664324788469967316e+05
7.317099999999999937e+00 3.596160807854946470e+05
7.349999999999999645e+00 3.539091348956848960e+05
7.383000000000000007e+00 3.504237321170876967e+05
7.416000000000000369e+00 3.500197764625672717e+05
7.448900000000000077e+00 3.528214939680751413e+05
7.481900000000000439e+00 3.583163147527581314e+05
7.514800000000000146e+00 3.656009371801181696e+05
7.547799999999999621e+00 3.737984072402719175e+05
7.580799999999999983e+00 3.819933820609333925e+05
7.613699999999999690e+00 3.896261276563554420e+05
7.646700000000000053e+00 3.965758049826089991e+05
7.679599999999999760e+00 4.024743757695620880e+05
7.712600000000000122e+00 4.066515492338122567e+05
7.745599999999999596e+00 4.089614703165232786e+05
7.778500000000000192e+00 4.098258396709061926e+05
7.811499999999999666e+00 4.100206030441134353e+05
7.844400000000000261e+00 4.110570017946956214e+05
7.877399999999999736e+00 4.141718253179443418e+05
7.910400000000000098e+00 4.196632751722523244e+05
7.943299999999999805e+00 4.270866788363106898e+05
7.976300000000000168e+00 4.357092542301004869e+05
8.009199999999999875e+00 4.455590407102752943e+05
8.042199999999999349e+00 4.574733104360340512e+05
8.075200000000000600e+00 4.721018241194651346e+05
8.108100000000000307e+00 4.894233917655256228e+05
8.141099999999999781e+00 5.096705542538827867e+05
8.173999999999999488e+00 5.323932903791876743e+05
8.207000000000000739e+00 5.545376280417486560e+05
8.240000000000000213e+00 5.722261521988405148e+05
8.272899999999999920e+00 5.841068881256651366e+05
8.305899999999999395e+00 5.912021107668830082e+05
8.338800000000000878e+00 5.944926823004556354e+05
8.371800000000000352e+00 5.948232191618358484e+05
8.404799999999999827e+00 5.927003907400693279e+05
8.437699999999999534e+00 5.886110669783593621e+05
8.470700000000000784e+00 5.838589653326703701e+05
8.503600000000000492e+00 5.801207347055751598e+05
8.536599999999999966e+00 5.779390311755911680e+05
8.569599999999999440e+00 5.761408068620825652e+05
8.602499999999999147e+00 5.735613588783043670e+05
8.635500000000000398e+00 5.711766471762928413e+05
8.668400000000000105e+00 5.708194342823586194e+05
8.701399999999999579e+00 5.735229844365335302e+05
8.734400000000000830e+00 5.789499348146973643e+05
8.767300000000000537e+00 5.858757869190050988e+05
8.800300000000000011e+00 5.937767093122676015e+05
8.833199999999999719e+00 6.024121095182306599e+05
8.866199999999999193e+00 6.115544085863814689e+05
8.899200000000000443e+00 6.211657760131910909e+05
8.932100000000000151e+00 6.312796556460902793e+05
8.965099999999999625e+00 6.416542493613963015e+05
8.997999999999999332e+00 6.512985803421323653e+05
9.031000000000000583e+00 6.593367392174799461e+05
9.064000000000000057e+00 6.662250448799810838e+05
9.096899999999999764e+00 6.731324640185006429e+05
9.129899999999999238e+00 6.805473167573636165e+05
9.162800000000000722e+00 6.889852719396207249e+05
9.195800000000000196e+00 6.993297478948266944e+05
9.228799999999999670e+00 7.109375021883790614e+05
9.261699999999999378e+00 7.213318140257097548e+05
9.294700000000000628e+00 7.287952106498442590e+05
9.327600000000000335e+00 7.331225952276925091e+05
9.360599999999999810e+00 7.344239648641468957e+05
9.393599999999999284e+00 7.332677856281022541e+05
9.426500000000000767e+00 7.311906721853248309e+05
9.459500000000000242e+00 7.306198866160422331e+05
9.492399999999999949e+00 7.343410811985355103e+05
9.525399999999999423e+00 7.436656336419240106e+05
9.558299999999999130e+00 7.577522116426898865e+05
9.591300000000000381e+00 7.747156244092698907e+05
9.624299999999999855e+00 7.931457013563845539e+05
9.657199999999999562e+00 8.124914349625169998e+05
9.690200000000000813e+00 8.325924899260777747e+05
9.723100000000000520e+00 8.524572561303711263e+05
9.756099999999999994e+00 8.702303096898371587e+05
9.789099999999999469e+00 8.842760184210492298e+05
9.821999999999999176e+00 8.931642967588244937e+05
9.855000000000000426e+00 8.953910428396089701e+05
9.887900000000000134e+00 8.909814948711193865e+05
9.920899999999999608e+00 8.832503900353496429e+05
9.953900000000000858e+00 8.773211637479369529e+05
9.986800000000000566e+00 8.759323083603844279e+05
1.001980000000000004e+01 8.781197644168463303e+05
1.005269999999999975e+01 8.815862986193139805e+05
1.008569999999999922e+01 8.840071695409793174e+05
1.011870000000000047e+01 8.840745661407000152e+05
1.015160000000000018e+01 8.820131525162670296e+05
1.018459999999999965e+01 8.792891348198085325e+05
1.021749999999999936e+01 8.782411895712113474e+05
1.025050000000000061e+01 8.812110958316037431e+05
1.028350000000000009e+01 8.893322034358775709e+05
1.031639999999999979e+01 9.019724552749877330e+05
1.034939999999999927e+01 9.165291370091550052e+05
1.038230000000000075e+01 9.297513187623798149e+05
1.041530000000000022e+01 9.404271325369479600e+05
1.044829999999999970e+01 9.496094755884130718e+05
1.048119999999999941e+01 9.588484519965606742e+05
1.051420000000000066e+01 9.694202446603013668e+05
1.054710000000000036e+01 9.822397239613974234e+05
1.058009999999999984e+01 9.972424679608142469e+05
1.061309999999999931e+01 1.012274557991680806e+06
1.064600000000000080e+01 1.023987505370465340e+06
1.067900000000000027e+01 1.031142947722943733e+06
1.071189999999999998e+01 1.034321139206566266e+06
1.074489999999999945e+01 1.034795019877119455e+06
1.077790000000000070e+01 1.034300685566769564e+06
1.081080000000000041e+01 1.034434473834622535e+06
1.084379999999999988e+01 1.036358560827536043e+06
1.087669999999999959e+01 1.041190047604724416e+06
1.090970000000000084e+01 1.049526502262997674e+06
1.094270000000000032e+01 1.060514176904581720e+06
1.097560000000000002e+01 1.071575181327202125e+06
1.100859999999999950e+01 1.080574046341337031e+06
1.104149999999999920e+01 1.086947318359066499e+06
1.107450000000000045e+01 1.089973227927270113e+06
1.110749999999999993e+01 1.089389203217890346e+06
1.114039999999999964e+01 1.087291967167455237e+06
1.117340000000000089e+01 1.086452181136436295e+06
1.120630000000000059e+01 1.087530828175251372e+06
1.123930000000000007e+01 1.089667567906767828e+06
1.127229999999999954e+01 1.092294338456638157e+06
1.130519999999999925e+01 1.095078859214005060e+06
1.133820000000000050e+01 1.096277899040670833e+06
1.137110000000000021e+01 1.093769616441417020e+06
1.140409999999999968e+01 1.087880560213114135e+06
1.143709999999999916e+01 1.080735161689847475e+06
1.147000000000000064e+01 1.073623175646591699e+06
1.150300000000000011e+01 1.066079353676775936e+06
1.153589999999999982e+01 1.058238671141337370e+06
1.156889999999999930e+01 1.052336014342701761e+06
1.160190000000000055e+01 1.049530749755791156e+06
1.163480000000000025e+01 1.048407797010600450e+06
1.166779999999999973e+01 1.047283606396966963e+06
1.170069999999999943e+01 1.045237556720835622e+06
1.173370000000000068e+01 1.041351855970932636e+06
1.176670000000000016e+01 1.035303962426369195e+06
1.179959999999999987e+01 1.028487158623999683e+06
1.183259999999999934e+01 1.022788184782927274e+06
1.186550000000000082e+01 1.019054464619887411e+06
1.189850000000000030e+01 1.018095675637296401e+06
1.193149999999999977e+01 1.020009149415137479e+06
1.196439999999999948e+01 1.023573274758895393e+06
1.199740000000000073e+01 1.027680441409667139e+06
1.203030000000000044e+01 1.032974578953436459e+06
1.206329999999999991e+01 1.040330576148987282e+06
1.209629999999999939e+01 1.048850859200125793e+06
1.212920000000000087e+01 1.057014831283820095e+06
1.216220000000000034e+01 1.064126155636288691e+06
1.219510000000000005e+01 1.070595772954754531e+06
1.222809999999999953e+01 1.076899806751577184e+06
1.226110000000000078e+01 1.082709851935909828e+06
1.229400000000000048e+01 1.087757330656399485e+06
1.232699999999999996e+01 1.092358298608272104e+06
1.235989999999999966e+01 1.096409850232277764e+06
1.239289999999999914e+01 1.101337427470057039e+06
1.242590000000000039e+01 1.109255849451874848e+06
1.245880000000000010e+01 1.119090419484357815e+06
1.249179999999999957e+01 1.127950754863393027e+06
1.252469999999999928e+01 1.134373990216963692e+06
1.255770000000000053e+01 1.138606224144677166e+06
1.259070000000000000e+01 1.141478205115314573e+06
1.262359999999999971e+01 1.144039479248854332e+06
1.265659999999999918e+01 1.147045132637595758e+06
1.268950000000000067e+01 1.150329857047955040e+06
1.272250000000000014e+01 1.153603411979711382e+06
1.275549999999999962e+01 1.157584107584570767e+06
1.278839999999999932e+01 1.163403427487396169e+06
1.282140000000000057e+01 1.170700364939460531e+06
1.285430000000000028e+01 1.178847740821698681e+06
1.288729999999999976e+01 1.187693415125198429e+06
1.292029999999999923e+01 1.196088882610916626e+06
1.295320000000000071e+01 1.202005689389965031e+06
1.298620000000000019e+01 1.204280186697006691e+06
1.301909999999999989e+01 1.203997844320930541e+06
1.305209999999999937e+01 1.203548182620161446e+06
1.308510000000000062e+01 1.203878945264436770e+06
1.311800000000000033e+01 1.203671110577761894e+06
