# energy(eV) alpha
0.000000000000000000e+00 0.000000000000000000e+00
3.610000000000000014e-02 7.142794187498389125e-01
7.209999999999999742e-02 2.790990418752781643e+00
1.082000000000000045e-01 6.328622527227763861e+00
1.443000000000000116e-01 1.129344160190276902e+01
1.802999999999999881e-01 1.782956917143150477e+01
2.164000000000000090e-01 2.567433568530736920e+01
2.525000000000000022e-01 3.494209039878775513e+01
2.886000000000000232e-01 4.563095779274365782e+01
3.245999999999999996e-01 5.827835091446007709e+01
3.607000000000000206e-01 7.186190277652141845e+01
3.967999999999999861e-01 8.753964351668835775e+01
4.328000000000000180e-01 1.039833936658486948e+02
4.688999999999999835e-01 1.230626201992731978e+02
5.050000000000000044e-01 1.432944368099157657e+02
5.410000000000000364e-01 1.650167350136571827e+02
5.770999999999999464e-01 1.882821643124098046e+02
6.131999999999999673e-01 2.141072614129900558e+02
6.492999999999999883e-01 2.415580213411154205e+02
6.853000000000000203e-01 2.700037937127200394e+02
7.214000000000000412e-01 3.018865222319763575e+02
7.574999999999999512e-01 3.348491388686394998e+02
7.934999999999999831e-01 3.707744298300461878e+02
8.296000000000000041e-01 4.078051093443366426e+02
8.657000000000000250e-01 4.472744881708064781e+02
9.016999999999999460e-01 4.892053412081498891e+02
9.377999999999999670e-01 5.337782277536604170e+02
9.738999999999999879e-01 5.810234348989395130e+02
1.010000000000000009e+00 6.310154672018692281e+02
1.046000000000000041e+00 6.846472517529002744e+02
1.082100000000000062e+00 7.394693237752843515e+02
1.118200000000000083e+00 7.990813736172653989e+02
1.154199999999999893e+00 8.607438158511205302e+02
1.190299999999999914e+00 9.265797702351976568e+02
1.226399999999999935e+00 9.956440959704499392e+02
1.262399999999999967e+00 1.068969916669782606e+03
1.298499999999999988e+00 1.146876495548044431e+03
1.334600000000000009e+00 1.229424917695964950e+03
1.370600000000000041e+00 1.316652190492352929e+03
1.406700000000000061e+00 1.407722828812488842e+03
1.442800000000000082e+00 1.504978860947360999e+03
1.478900000000000103e+00 1.608641750430745788e+03
1.514899999999999913e+00 1.717538765730127352e+03
1.550999999999999934e+00 1.834591442599354195e+03
1.587099999999999955e+00 1.959935687062512898e+03
1.623099999999999987e+00 2.091052297167931101e+03
1.659200000000000008e+00 2.233761508281188526e+03
1.695300000000000029e+00 2.385520209892408275e+03
1.731300000000000061e+00 2.545016527103926819e+03
1.767400000000000082e+00 2.718461326359952636e+03
1.803500000000000103e+00 2.904657951100291484e+03
1.839599999999999902e+00 3.105449602828680327e+03
1.875599999999999934e+00 3.324079971717111675e+03
1.911699999999999955e+00 3.559842230092322097e+03
1.947799999999999976e+00 3.817698950345198682e+03
1.983800000000000008e+00 4.098000559466898267e+03
2.019899999999999807e+00 4.408116736297572061e+03
2.056000000000000050e+00 4.746998814459189816e+03
2.092000000000000082e+00 5.126552522417416185e+03
2.128099999999999881e+00 5.549935979246623901e+03
2.164200000000000124e+00 6.027974932154725138e+03
2.200200000000000156e+00 6.575268140735903216e+03
2.236299999999999955e+00 7.204268464714922629e+03
2.272400000000000198e+00 7.940623098278023463e+03
2.308499999999999996e+00 8.823594504655999117e+03
2.344500000000000028e+00 9.901927601459610742e+03
2.380599999999999827e+00 1.125037236482379922e+04
2.416700000000000070e+00 1.297227332727663634e+04
2.452700000000000102e+00 1.513088226738942103e+04
2.488799999999999901e+00 1.767102578525024364e+04
2.524900000000000144e+00 2.063302061534771565e+04
2.560900000000000176e+00 2.450105202383998767e+04
2.596999999999999975e+00 2.978065859925279437e+04
2.633100000000000218e+00 3.645414018266421772e+04
2.669200000000000017e+00 4.397183219067966274e+04
2.705200000000000049e+00 5.156104286605923699e+04
2.741299999999999848e+00 5.891594869024743093e+04
2.777400000000000091e+00 6.635901779364467075e+04
2.813400000000000123e+00 7.378232445820677094e+04
2.849499999999999922e+00 8.126568641215056414e+04
2.885600000000000165e+00 8.876294511805493676e+04
2.921600000000000197e+00 9.547814590738773404e+04
2.957699999999999996e+00 9.964491849184359307e+04
2.993799999999999795e+00 1.013411552250138193e+05
3.029900000000000038e+00 1.020813134020900179e+05
3.065900000000000070e+00 1.020258919816446287e+05
3.101999999999999869e+00 1.035398616294821550e+05
3.138100000000000112e+00 1.095961455682251253e+05
3.174100000000000144e+00 1.206684544428182271e+05
3.210199999999999942e+00 1.358138316406605300e+05
3.246300000000000185e+00 1.530461688837127003e+05
3.282300000000000217e+00 1.692087833562891465e+05
3.318400000000000016e+00 1.812850923743918538e+05
3.354499999999999815e+00 1.891942662490734074e+05
3.390499999999999847e+00 1.940792822544188530e+05
3.426600000000000090e+00 1.967316537467878661e+05
3.462699999999999889e+00 1.992965089840127912e+05
3.498800000000000132e+00 2.027269478143778397e+05
3.534800000000000164e+00 2.067499901705711673e+05
3.570899999999999963e+00 2.136518088537641161e+05
3.607000000000000206e+00 2.249340490898630233e+05
3.642999999999999794e+00 2.386245687849610113e+05
3.679100000000000037e+00 2.522226573390384146e+05
3.715199999999999836e+00 2.641109325777760241e+05
3.751199999999999868e+00 2.726273109591582324e+05
3.787300000000000111e+00 2.772319355533843045e+05
3.823399999999999910e+00 2.795463675116808736e+05
3.859500000000000153e+00 2.818014740175641491e+05
3.895500000000000185e+00 2.846041703425477608e+05
3.931599999999999984e+00 2.881469675663528033e+05
3.967699999999999783e+00 2.921303569265286787e+05
4.003700000000000259e+00 2.961094317955181468e+05
4.039799999999999613e+00 3.012300246988341678e+05
4.075899999999999856e+00 3.086743395874990965e+05
4.111900000000000333e+00 3.186620063942096895e+05
4.147999999999999687e+00 3.307388023446314037e+05
4.184099999999999930e+00 3.437106915887766518e+05
4.220200000000000173e+00 3.556601059127638000e+05
4.256199999999999761e+00 3.655166151685679215e+05
4.292300000000000004e+00 3.743423209816308226e+05
4.328400000000000247e+00 3.837524278617842938e+05
4.364399999999999835e+00 3.938796229376762640e+05
4.400500000000000078e+00 4.040204265331383212e+05
4.436600000000000321e+00 4.135635265452080639e+05
4.472599999999999909e+00 4.211420241707668174e+05
4.508700000000000152e+00 4.254300209788923385e+05
4.544800000000000395e+00 4.259965968679946382e+05
4.580799999999999983e+00 4.237522382575696683e+05
4.616900000000000226e+00 4.209202285955078551e+05
4.652999999999999581e+00 4.197754770386434393e+05
4.689099999999999824e+00 4.212586332116352278e+05
4.725100000000000300e+00 4.247451569351258222e+05
4.761199999999999655e+00 4.296727105886698700e+05
4.797299999999999898e+00 4.361774441287890077e+05
4.833300000000000374e+00 4.441733820267429692e+05
4.869399999999999729e+00 4.529967250731422100e+05
4.905499999999999972e+00 4.614016715957901324e+05
4.941499999999999559e+00 4.686287371541460161e+05
4.977599999999999802e+00 4.749077978619658388e+05
5.013700000000000045e+00 4.803864470028910437e+05
5.049800000000000288e+00 4.845243164511431241e+05
5.085799999999999876e+00 4.863752894136245595e+05
5.121900000000000119e+00 4.854953618838074617e+05
5.158000000000000362e+00 4.827965207580091082e+05
5.193999999999999950e+00 4.798016553655008902e+05
5.230100000000000193e+00 4.771345681596045615e+05
5.266200000000000436e+00 4.742193930039350525e+05
5.302200000000000024e+00 4.704324711685772636e+05
5.338300000000000267e+00 4.656567417196098831e+05
5.374399999999999622e+00 4.601509795894512790e+05
5.410499999999999865e+00 4.539583368377845036e+05
5.446500000000000341e+00 4.478468286649369402e+05
5.482599999999999696e+00 4.429731208159702946e+05
5.518699999999999939e+00 4.393540788587864372e+05
5.554700000000000415e+00 4.362645469267817098e+05
5.590799999999999770e+00 4.335983428544014459e+05
5.626900000000000013e+00 4.319658225213358528e+05
5.662899999999999601e+00 4.314101899923738674e+05
5.698999999999999844e+00 4.313426490239850245e+05
5.735100000000000087e+00 4.312817686729051638e+05
5.771099999999999675e+00 4.309299498770324280e+05
5.807199999999999918e+00 4.302583367491813260e+05
5.843300000000000161e+00 4.288639478475885699e+05
5.879400000000000404e+00 4.258464943420261843e+05
5.915399999999999991e+00 4.218543596869794419e+05
5.951500000000000234e+00 4.188646256522195763e+05
5.987599999999999589e+00 4.180451828600126319e+05
6.023600000000000065e+00 4.184113820670938585e+05
6.059700000000000308e+00 4.180232303253329592e+05
6.095799999999999663e+00 4.164039856213763123e+05
6.131800000000000139e+00 4.143952033447264112e+05
6.167900000000000382e+00 4.124398543889264110e+05
6.203999999999999737e+00 4.100943760704440065e+05
6.240099999999999980e+00 4.064517102016239078e+05
6.276099999999999568e+00 4.016285365652914043e+05
6.312199999999999811e+00 3.970194873228840297e+05
6.348300000000000054e+00 3.934091138547524461e+05
6.384299999999999642e+00 3.907757802141458378e+05
6.420399999999999885e+00 3.887781699959057150e+05
6.456500000000000128e+00 3.872380344237127574e+05
6.492499999999999716e+00 3.860067045862453524e+05
6.528599999999999959e+00 3.849287658579014824e+05
6.564700000000000202e+00 3.837278788354663993e+05
6.600699999999999790e+00 3.823601188616756699e+05
6.636800000000000033e+00 3.812708728222796926e+05
6.672900000000000276e+00 3.810166314714186010e+05
6.708999999999999631e+00 3.815336865229675313e+05
6.745000000000000107e+00 3.818890636490996112e+05
6.781100000000000350e+00 3.813444036894964520e+05
6.817199999999999704e+00 3.803162660862165503e+05
6.853200000000000180e+00 3.801154411519292044e+05
6.889300000000000423e+00 3.815760474861770635e+05
6.925399999999999778e+00 3.843167062376479735e+05
6.961400000000000254e+00 3.875276679554328439e+05
6.997499999999999609e+00 3.905304428709248896e+05
7.033599999999999852e+00 3.929564441207619384e+05
7.069700000000000095e+00 3.951753989099710016e+05
7.105699999999999683e+00 3.981543232989282697e+05
7.141799999999999926e+00 4.024780330356094637e+05
7.177900000000000169e+00 4.078588839579885243e+05
7.213899999999999757e+00 4.133874314406430931e+05
7.250000000000000000e+00 4.186377478139254381e+05
7.286100000000000243e+00 4.238516402185235056e+05
7.322099999999999831e+00 4.291114141937105451e+05
7.358200000000000074e+00 4.346237910230281414e+05
7.394300000000000317e+00 4.408151124195682933e+05
7.430399999999999672e+00 4.478686206863569678e+05
7.466400000000000148e+00 4.557195895580928773e+05
7.502500000000000391e+00 4.643602294210708351e+05
7.538599999999999746e+00 4.737290951191203203e+05
7.574600000000000222e+00 4.836740582707911963e+05
7.610699999999999577e+00 4.940426605228417320e+05
7.646799999999999820e+00 5.046341881914377445e+05
7.682800000000000296e+00 5.154423490831974195e+05
7.718899999999999650e+00 5.263506193982578116e+05
7.754999999999999893e+00 5.375339080900441622e+05
7.791000000000000369e+00 5.490338355573534500e+05
7.827099999999999724e+00 5.598805380348778563e+05
7.863199999999999967e+00 5.691164903233260848e+05
7.899300000000000210e+00 5.765255126170461299e+05
7.935299999999999798e+00 5.822012960122667719e+05
7.971400000000000041e+00 5.866592988515333273e+05
8.007500000000000284e+00 5.908211173333385959e+05
8.043499999999999872e+00 5.956126185639918549e+05
8.079599999999999227e+00 6.015284829168880824e+05
8.115700000000000358e+00 6.086722589196491754e+05
8.151699999999999946e+00 6.171839843986069318e+05
8.187799999999999301e+00 6.268359891877433984e+05
8.223900000000000432e+00 6.365232725433036685e+05
8.259999999999999787e+00 6.452639453501485987e+05
8.295999999999999375e+00 6.523888605638020672e+05
8.332100000000000506e+00 6.575721851213710615e+05
8.368199999999999861e+00 6.611654091165527934e+05
8.404199999999999449e+00 6.639818012026733486e+05
8.440300000000000580e+00 6.665974788846004521e+05
8.476399999999999935e+00 6.694011403995578876e+05
8.512399999999999523e+00 6.726312101789497538e+05
8.548500000000000654e+00 6.764118757826514775e+05
8.584600000000000009e+00 6.810126421297136694e+05
8.620699999999999363e+00 6.865078094191460405e+05
8.656700000000000728e+00 6.926191121652129805e+05
8.692800000000000082e+00 6.990432684721364640e+05
8.728899999999999437e+00 7.056740498933821218e+05
8.764900000000000801e+00 7.124036157767925179e+05
8.801000000000000156e+00 7.191355202402853174e+05
8.837099999999999511e+00 7.257993634806802729e+05
8.873100000000000875e+00 7.323702577232086333e+05
8.909200000000000230e+00 7.388028655589678092e+05
8.945299999999999585e+00 7.449384141609054059e+05
8.981299999999999173e+00 7.503434836988834431e+05
9.017400000000000304e+00 7.546285715568556916e+05
9.053499999999999659e+00 7.579276407592841424e+05
9.089600000000000790e+00 7.607380943945415784e+05
9.125600000000000378e+00 7.635922218403585721e+05
9.161699999999999733e+00 7.664032778867253801e+05
9.197800000000000864e+00 7.689193640770775964e+05
9.233800000000000452e+00 7.709820601982964436e+05
9.269899999999999807e+00 7.725536083217574051e+05
9.305999999999999162e+00 7.737539108431844506e+05
9.342000000000000526e+00 7.748570076146518113e+05
9.378099999999999881e+00 7.763534089491224149e+05
9.414199999999999235e+00 7.783590786613661330e+05
9.450300000000000367e+00 7.808677777418335900e+05
9.486299999999999955e+00 7.839475459636738524e+05
9.522399999999999309e+00 7.876110387530282605e+05
9.558500000000000441e+00 7.915601007457072847e+05
9.594500000000000028e+00 7.953334138831488090e+05
9.630599999999999383e+00 7.984879710498804925e+05
9.666700000000000514e+00 8.013998206173660001e+05
9.702700000000000102e+00 8.049289032080019824e+05
9.738799999999999457e+00 8.094900341311388183e+05
9.774900000000000588e+00 8.150334382277522236e+05
9.810999999999999943e+00 8.217261994695493486e+05
9.846999999999999531e+00 8.297108046230137115e+05
9.883100000000000662e+00 8.381962412732352968e+05
9.919200000000000017e+00 8.459728587569633964e+05
9.955199999999999605e+00 8.527263930338476785e+05
9.991300000000000736e+00 8.591125550981537672e+05
1.002740000000000009e+01 8.658757827605473576e+05
1.006339999999999968e+01 8.736318868403211236e+05
1.009950000000000081e+01 8.829289148563817143e+05
1.013560000000000016e+01 8.932504750862495275e+05
1.017159999999999975e+01 9.037172370864143595e+05
1.020770000000000088e+01 9.138741372448996408e+05
1.024380000000000024e+01 9.236114623597190948e+05
1.027989999999999959e+01 9.334270152846425772e+05
1.031589999999999918e+01 9.444801155991874402e+05
1.035200000000000031e+01 9.573706227810449200e+05
1.038809999999999967e+01 9.703022458536197664e+05
1.042409999999999926e+01 9.807340263220986817e+05
1.046020000000000039e+01 9.881669194313583430e+05
1.049629999999999974e+01 9.934448798160738079e+05
1.053229999999999933e+01 9.977676977740621660e+05
1.056840000000000046e+01 1.003218663007633644e+06
1.060449999999999982e+01 1.010854804768841364e+06
1.064059999999999917e+01 1.019589775149029214e+06
1.067660000000000053e+01 1.027167018545659492e+06
1.071269999999999989e+01 1.031894588217503508e+06
1.074879999999999924e+01 1.032738720154785668e+06
1.078480000000000061e+01 1.029547220741546014e+06
1.082089999999999996e+01 1.023767086948433425e+06
1.085699999999999932e+01 1.016899623377784854e+06
1.089300000000000068e+01 1.010053818160233786e+06
1.092910000000000004e+01 1.004071063883705880e+06
1.096519999999999939e+01 9.995834407047971617e+05
1.100120000000000076e+01 9.966451749792207265e+05
1.103730000000000011e+01 9.939018340988751734e+05
1.107339999999999947e+01 9.897489650419154204e+05
1.110950000000000060e+01 9.842249769952157512e+05
1.114550000000000018e+01 9.791465541427563876e+05
1.118159999999999954e+01 9.763659818472276675e+05
1.121770000000000067e+01 9.762627011339024175e+05
1.125370000000000026e+01 9.774093917971363990e+05
1.128979999999999961e+01 9.783869320699772798e+05
1.132590000000000074e+01 9.792481365956654772e+05
1.136190000000000033e+01 9.807403761974776862e+05
1.139799999999999969e+01 9.828212075569733279e+05
1.143410000000000082e+01 9.842550888035084354e+05
1.147020000000000017e+01 9.840563120415803278e+05
1.150619999999999976e+01 9.826343013881283114e+05
1.154229999999999912e+01 9.810975950565183302e+05
1.157840000000000025e+01 9.799170995317790657e+05
1.161439999999999984e+01 9.785460422166534699e+05
1.165049999999999919e+01 9.764781201946953079e+05
1.168660000000000032e+01 9.738432466860081768e+05
1.172259999999999991e+01 9.709976860031718388e+05
1.175869999999999926e+01 9.681200010043218499e+05
1.179480000000000040e+01 9.655992051169920014e+05
1.183089999999999975e+01 9.640778282140655210e+05
1.186689999999999934e+01 9.641783622126190457e+05
1.190300000000000047e+01 9.661582883531076368e+05
1.193909999999999982e+01 9.696969191013968084e+05
1.197509999999999941e+01 9.739580394560355926e+05
1.201120000000000054e+01 9.782742133214549394e+05
1.204729999999999990e+01 9.821505611341835465e+05
1.208329999999999949e+01 9.852602659587340895e+05
1.211940000000000062e+01 9.881897802305085352e+05
1.215549999999999997e+01 9.920340119017320685e+05
1.219149999999999956e+01 9.971517464713025838e+05
1.222760000000000069e+01 1.003228768584783771e+06
1.226370000000000005e+01 1.009838173269317020e+06
1.229979999999999940e+01 1.016175932009693235e+06
1.233580000000000076e+01 1.021609722184653860e+06
1.237190000000000012e+01 1.025971933182483306e+06
1.240799999999999947e+01 1.029343289463254972e+06
1.244400000000000084e+01 1.031304306795162731e+06
1.248010000000000019e+01 1.031784870752329356e+06
1.251619999999999955e+01 1.031572452791465446e+06
1.255219999999999914e+01 1.031199599190157489e+06
1.258830000000000027e+01 1.030235326893383055e+06
1.262439999999999962e+01 1.028771778837222490e+06
1.266050000000000075e+01 1.028153135858489084e+06
1.269650000000000034e+01 1.029568580281338771e+06
1.273259999999999970e+01 1.033630407279123552e+06
1.276870000000000083e+01 1.039960476283621741e+06
1.280470000000000041e+01 1.046981492299149977e+06
1.284079999999999977e+01 1.053363884182552341e+06
1.287689999999999912e+01 1.058485212327998364e+06
1.291290000000000049e+01 1.061842979633723618e+06
1.294899999999999984e+01 1.064022381795236841e+06
1.298509999999999920e+01 1.066551156223173253e+06
1.302120000000000033e+01 1.070445500937514007e+06
1.305719999999999992e+01 1.075366202756280312e+06
1.309329999999999927e+01 1.080807244623369537e+06
1.312940000000000040e+01 1.085535221071563428e+06
1.316539999999999999e+01 1.088002220955633791e+06
1.320149999999999935e+01 1.088170445350525668e+06
1.323760000000000048e+01 1.086942584256855771e+06
1.327360000000000007e+01 1.084914494550498202e+06
1.330969999999999942e+01 1.082632687046073144e+06
1.334580000000000055e+01 1.080102251827323576e+06
1.338180000000000014e+01 1.077153588952545077e+06
1.341789999999999949e+01 1.073427973567014560e+06
1.345400000000000063e+01 1.068671916393521009e+06
1.349009999999999998e+01 1.062825838401851710e+06
1.352609999999999957e+01 1.055489429789052578e+06
1.356220000000000070e+01 1.046883591485997196e+06
1.359830000000000005e+01 1.037776482001641300e+06
1.363429999999999964e+01 1.028804767524778377e+06
1.367040000000000077e+01 1.020520667004299699e+06
1.370650000000000013e+01 1.013065923291845131e+06
1.374249999999999972e+01 1.006631518191918032e+06
1.377860000000000085e+01 1.001587414149416145e+06
1.381470000000000020e+01 9.981419227244441863e+05
1.385079999999999956e+01 9.963311297146857250e+05
1.388679999999999914e+01 9.966751129244863987e+05
1.392290000000000028e+01 9.992574928242682945e+05
1.395899999999999963e+01 1.003207723360337899e+06
1.399499999999999922e+01 1.007550164139420842e+06
1.403110000000000035e+01 1.011756994873538031e+06
1.406719999999999970e+01 1.015847484524993226e+06
1.410319999999999929e+01 1.020244285782832885e+06
1.413930000000000042e+01 1.025421925017819623e+06
1.417539999999999978e+01 1.031524234677215340e+06
1.421139999999999937e+01 1.037865965371284634e+06
1.424750000000000050e+01 1.044008553685950697e+06
1.428359999999999985e+01 1.050394520433075959e+06
1.431969999999999921e+01 1.057495705694505246e+06
1.435570000000000057e+01 1.065611876902813558e+06
