# energy(eV) alpha
0.000000000000000000e+00 0.000000000000000000e+00
3.849999999999999950e-02 4.270836900378356393e-01
7.699999999999999900e-02 1.708275067420548687e+00
1.155000000000000054e-01 3.843407871734603631e+00
1.539999999999999980e-01 6.689842459791735862e+00
1.925000000000000044e-01 1.049625927287368832e+01
2.310000000000000109e-01 1.515549534765982642e+01
2.695000000000000173e-01 2.041772974372217675e+01
3.079999999999999960e-01 2.674495950619488482e+01
3.464999999999999747e-01 3.392268558423597113e+01
3.850999999999999979e-01 4.196057679132234597e+01
4.235999999999999766e-01 5.083742941881983057e+01
4.621000000000000107e-01 6.098732141269211837e+01
5.006000000000000449e-01 7.159276161773374270e+01
5.391000000000000236e-01 8.304172303610035044e+01
5.776000000000000023e-01 9.586623478120341701e+01
6.160999999999999810e-01 1.090348488929613069e+02
6.545999999999999597e-01 1.230425443715532907e+02
6.931000000000000494e-01 1.378873400678944279e+02
7.316000000000000281e-01 1.555877537050479020e+02
7.701000000000000068e-01 1.722057084627913639e+02
8.085999999999999854e-01 1.903986433755097778e+02
8.470999999999999641e-01 2.094875858584347554e+02
8.856000000000000538e-01 2.302863548944348508e+02
9.241000000000000325e-01 2.511986016555851506e+02
9.626000000000000112e-01 2.738822550917833496e+02
1.001100000000000101e+00 2.975214198155831582e+02
1.039600000000000080e+00 3.221126732393818770e+02
1.078100000000000058e+00 3.476524678449062549e+02
1.116600000000000037e+00 3.741316387890009878e+02
1.155200000000000005e+00 4.026466006755401281e+02
1.193699999999999983e+00 4.321316915267373702e+02
1.232199999999999962e+00 4.626157115283596113e+02
1.270699999999999941e+00 4.952512348562054285e+02
1.309199999999999919e+00 5.289464213050727039e+02
1.347699999999999898e+00 5.624682430705341858e+02
1.386200000000000099e+00 5.994872027299487627e+02
1.424700000000000077e+00 6.363184405015225593e+02
1.463200000000000056e+00 6.768436632243269742e+02
1.501700000000000035e+00 7.158018098883577522e+02
1.540200000000000014e+00 7.585720702062509417e+02
1.578699999999999992e+00 8.024912661827952434e+02
1.617199999999999971e+00 8.475482519334584595e+02
1.655699999999999950e+00 8.967206579941646396e+02
1.694199999999999928e+00 9.456253599440343578e+02
1.732699999999999907e+00 9.972678375633917085e+02
1.771200000000000108e+00 1.050141248677686463e+03
1.809700000000000086e+00 1.104235573987125008e+03
1.848200000000000065e+00 1.161201821920155908e+03
1.886800000000000033e+00 1.221197345563058434e+03
1.925300000000000011e+00 1.284163270322722838e+03
1.963799999999999990e+00 1.348493681318399467e+03
2.002299999999999969e+00 1.415972134720437680e+03
2.040799999999999947e+00 1.484845893712168845e+03
2.079299999999999926e+00 1.556967975034069241e+03
2.117799999999999905e+00 1.630519451495151316e+03
2.156299999999999883e+00 1.707384950233203426e+03
2.194799999999999862e+00 1.791558909478287205e+03
2.233299999999999841e+00 1.873412589487858668e+03
2.271799999999999820e+00 1.962743949541462143e+03
2.310299999999999798e+00 2.053724375433454952e+03
2.348800000000000221e+00 2.148394109525701879e+03
2.387300000000000200e+00 2.246791877613183260e+03
2.425800000000000178e+00 2.351153537416319978e+03
2.464300000000000157e+00 2.457261904982971828e+03
2.502800000000000136e+00 2.571676259215669688e+03
2.541300000000000114e+00 2.685736970738320906e+03
2.579800000000000093e+00 2.810583060450810990e+03
2.618399999999999839e+00 2.939777020036013710e+03
2.656899999999999817e+00 3.073146217830423666e+03
2.695399999999999796e+00 3.213163906788278837e+03
2.733900000000000219e+00 3.359985755565598083e+03
2.772400000000000198e+00 3.513646839187325895e+03
2.810900000000000176e+00 3.676704682844694162e+03
2.849400000000000155e+00 3.846926871820786346e+03
2.887900000000000134e+00 4.024387732117561427e+03
2.926400000000000112e+00 4.214121309853254388e+03
2.964900000000000091e+00 4.413853243581940660e+03
3.003400000000000070e+00 4.621198881034880287e+03
3.041900000000000048e+00 4.846413885026131538e+03
3.080400000000000027e+00 5.082156780164843440e+03
3.118900000000000006e+00 5.336263785536153591e+03
3.157399999999999984e+00 5.598535674904855114e+03
3.195899999999999963e+00 5.884925226136602760e+03
3.234399999999999942e+00 6.187724012702335131e+03
3.272899999999999920e+00 6.515181588888793158e+03
3.311399999999999899e+00 6.870398006340346001e+03
3.349899999999999878e+00 7.256333406571608975e+03
3.388500000000000068e+00 7.676400524076034344e+03
3.427000000000000046e+00 8.141577700398043817e+03
3.465500000000000025e+00 8.658207590362222618e+03
3.504000000000000004e+00 9.246564595690291753e+03
3.542499999999999982e+00 9.921799311266855511e+03
3.580999999999999961e+00 1.069643483055313663e+04
3.619499999999999940e+00 1.156580959237318712e+04
3.657999999999999918e+00 1.252421714500219423e+04
3.696499999999999897e+00 1.363248452525274661e+04
3.734999999999999876e+00 1.498514488340213029e+04
3.773499999999999854e+00 1.663812215892531094e+04
3.811999999999999833e+00 1.859470039281211211e+04
3.850499999999999812e+00 2.089551340598111346e+04
3.888999999999999790e+00 2.360762007028820153e+04
3.927500000000000213e+00 2.657845740166568794e+04
3.966000000000000192e+00 2.957972497028390353e+04
4.004500000000000171e+00 3.307370351504003338e+04
4.043000000000000149e+00 3.763729929973540857e+04
4.081500000000000128e+00 4.289437748185507371e+04
4.120099999999999874e+00 4.758449049221319729e+04
4.158599999999999852e+00 5.168486479154752305e+04
4.197099999999999831e+00 5.673743516624490439e+04
4.235599999999999810e+00 6.333252852832605276e+04
4.274099999999999788e+00 6.974758636766899144e+04
4.312599999999999767e+00 7.447792851396439073e+04
4.351099999999999746e+00 7.957524344032813678e+04
4.389599999999999724e+00 8.610638514604189550e+04
4.428099999999999703e+00 9.274310072003105597e+04
4.466599999999999682e+00 9.974253652567720565e+04
4.505099999999999660e+00 1.086649566972876928e+05
4.543599999999999639e+00 1.194768459970396798e+05
4.582099999999999618e+00 1.316924026377570699e+05
4.620599999999999596e+00 1.470886542730006331e+05
4.659099999999999575e+00 1.668741694721856620e+05
4.697600000000000442e+00 1.889063578530039231e+05
4.736100000000000421e+00 2.102597560089209001e+05
4.774600000000000399e+00 2.300902118289324280e+05
4.813100000000000378e+00 2.490385334369558550e+05
4.851700000000000124e+00 2.683408363710294943e+05
4.890200000000000102e+00 2.898321201690552407e+05
4.928700000000000081e+00 3.142776658551375149e+05
4.967200000000000060e+00 3.413348414808671805e+05
5.005700000000000038e+00 3.698064695769401733e+05
5.044200000000000017e+00 3.975667825559874182e+05
5.082699999999999996e+00 4.237054577664490789e+05
5.121199999999999974e+00 4.486561749660941423e+05
5.159699999999999953e+00 4.723641147750585224e+05
5.198199999999999932e+00 4.954558096868987777e+05
5.236699999999999910e+00 5.180343355038191075e+05
5.275199999999999889e+00 5.387906504183212528e+05
5.313699999999999868e+00 5.567738756573689170e+05
5.352199999999999847e+00 5.721052284281306202e+05
5.390699999999999825e+00 5.848024324393159477e+05
5.429199999999999804e+00 5.958949084748070454e+05
5.467699999999999783e+00 6.073091708063798724e+05
5.506199999999999761e+00 6.194449109039235627e+05
5.544699999999999740e+00 6.315684561510648346e+05
5.583199999999999719e+00 6.424134782103858888e+05
5.621800000000000352e+00 6.502301293457790744e+05
5.660300000000000331e+00 6.543655989428380271e+05
5.698800000000000310e+00 6.550254180997774238e+05
5.737300000000000288e+00 6.528007287156396778e+05
5.775800000000000267e+00 6.489866951764579862e+05
5.814300000000000246e+00 6.448944832598081557e+05
5.852800000000000225e+00 6.412934417682018830e+05
5.891300000000000203e+00 6.381701199633618817e+05
5.929800000000000182e+00 6.349940541019638767e+05
5.968300000000000161e+00 6.321287449723707978e+05
6.006800000000000139e+00 6.311240072538586101e+05
6.045300000000000118e+00 6.334030483855310595e+05
6.083800000000000097e+00 6.392006199638597900e+05
6.122300000000000075e+00 6.472177850754294777e+05
6.160800000000000054e+00 6.566964750850179698e+05
6.199300000000000033e+00 6.683198610991501482e+05
6.237800000000000011e+00 6.837221365509919124e+05
6.276299999999999990e+00 7.036326241104966030e+05
6.314799999999999969e+00 7.262795611026594415e+05
6.353399999999999714e+00 7.477319717653881526e+05
6.391899999999999693e+00 7.643446454267861554e+05
6.430399999999999672e+00 7.764695832452496979e+05
6.468899999999999650e+00 7.865498381322168279e+05
6.507399999999999629e+00 7.964333416695271153e+05
6.545899999999999608e+00 8.078975164819236379e+05
6.584399999999999586e+00 8.218361932692477712e+05
6.622899999999999565e+00 8.367895721126152202e+05
6.661400000000000432e+00 8.510886682547787204e+05
6.699900000000000411e+00 8.642773665119430516e+05
6.738400000000000389e+00 8.762559958489356795e+05
6.776900000000000368e+00 8.868527356185525423e+05
6.815400000000000347e+00 8.956830120826489292e+05
6.853900000000000325e+00 9.016193782536529470e+05
6.892400000000000304e+00 9.041058940909522353e+05
6.930900000000000283e+00 9.053124352949882159e+05
6.969400000000000261e+00 9.086811658030733233e+05
7.007900000000000240e+00 9.158642888241164619e+05
7.046400000000000219e+00 9.265517315036319196e+05
7.084999999999999964e+00 9.388791621575406753e+05
7.123499999999999943e+00 9.506272443568552844e+05
7.161999999999999922e+00 9.611886658404918853e+05
7.200499999999999901e+00 9.717034651619059732e+05
7.238999999999999879e+00 9.824400195520096458e+05
7.277499999999999858e+00 9.906011199769905070e+05
7.315999999999999837e+00 9.914568491849186830e+05
7.354499999999999815e+00 9.833895445866050432e+05
7.392999999999999794e+00 9.686685582101170439e+05
7.431499999999999773e+00 9.502226377759361640e+05
7.469999999999999751e+00 9.298676642481753370e+05
7.508499999999999730e+00 9.091539030373663409e+05
7.546999999999999709e+00 8.903121708959585521e+05
7.585499999999999687e+00 8.748716868643327616e+05
7.623999999999999666e+00 8.632141722257611109e+05
7.662499999999999645e+00 8.548429024592578644e+05
7.700999999999999623e+00 8.483921787204641150e+05
7.739499999999999602e+00 8.425118657025928842e+05
7.777999999999999581e+00 8.366511126464665867e+05
7.816499999999999559e+00 8.312145474563253811e+05
7.855100000000000193e+00 8.264508963884367840e+05
7.893600000000000172e+00 8.222831906709467294e+05
7.932100000000000151e+00 8.197377180168626364e+05
7.970600000000000129e+00 8.189880197851514677e+05
8.009100000000000108e+00 8.176950085901628481e+05
8.047599999999999199e+00 8.145459220323946793e+05
8.086100000000000065e+00 8.107347539104328025e+05
8.124599999999999156e+00 8.079814798633246683e+05
8.163100000000000023e+00 8.064609607690486591e+05
8.201599999999999113e+00 8.048598335156321991e+05
8.240099999999999980e+00 8.025185707154670963e+05
8.278600000000000847e+00 8.003292763748483267e+05
8.317099999999999937e+00 7.993208839808383491e+05
8.355600000000000804e+00 7.992466836990461452e+05
8.394099999999999895e+00 7.991206809791726992e+05
8.432600000000000762e+00 7.984143534397694748e+05
8.471099999999999852e+00 7.979529378316585207e+05
8.509600000000000719e+00 8.000081033679943066e+05
8.548099999999999810e+00 8.052159919444415718e+05
8.586700000000000443e+00 8.118673115483770380e+05
8.625199999999999534e+00 8.183067900721210754e+05
8.663700000000000401e+00 8.233577799457956571e+05
8.702199999999999491e+00 8.269698911705138162e+05
8.740700000000000358e+00 8.298736671120180981e+05
8.779199999999999449e+00 8.323888337609672453e+05
8.817700000000000315e+00 8.345143262256648159e+05
8.856199999999999406e+00 8.360921776766071562e+05
8.894700000000000273e+00 8.365543154905902920e+05
8.933199999999999363e+00 8.362685418531288160e+05
8.971700000000000230e+00 8.360974514795577852e+05
9.010199999999999321e+00 8.369475647885565413e+05
9.048700000000000188e+00 8.395689624780428130e+05
9.087199999999999278e+00 8.439591775461292127e+05
9.125700000000000145e+00 8.487115131889124168e+05
9.164199999999999235e+00 8.524262175258392235e+05
9.202700000000000102e+00 8.546340316297602840e+05
9.241199999999999193e+00 8.547316689498535125e+05
9.279700000000000060e+00 8.521071472446608823e+05
9.318300000000000693e+00 8.475948924322008388e+05
9.356799999999999784e+00 8.425659130142949289e+05
9.395300000000000651e+00 8.373723360972100636e+05
9.433799999999999741e+00 8.312475860597578576e+05
9.472300000000000608e+00 8.227351205002716742e+05
9.510799999999999699e+00 8.114785707939035492e+05
9.549300000000000566e+00 7.986925374934000429e+05
9.587799999999999656e+00 7.862802331419545226e+05
9.626300000000000523e+00 7.746399353545554914e+05
9.664799999999999613e+00 7.630083862738524331e+05
9.703300000000000480e+00 7.518395811493903166e+05
9.741799999999999571e+00 7.423325064622758655e+05
9.780300000000000438e+00 7.352132138190612895e+05
9.818799999999999528e+00 7.306381643418415915e+05
9.857300000000000395e+00 7.284682639292605454e+05
9.895799999999999486e+00 7.282875272089653881e+05
9.934300000000000352e+00 7.292228806363696931e+05
9.972799999999999443e+00 7.295920291356930975e+05
1.001130000000000031e+01 7.285994308845907217e+05
1.004979999999999940e+01 7.273000544997273246e+05
1.008840000000000003e+01 7.258846731499002781e+05
1.012689999999999912e+01 7.230311741418231977e+05
1.016539999999999999e+01 7.182688751407826785e+05
1.020390000000000086e+01 7.121677955906986026e+05
1.024239999999999995e+01 7.055967258173171431e+05
1.028090000000000082e+01 6.995748636275369208e+05
1.031939999999999991e+01 6.945281627088375390e+05
1.035790000000000077e+01 6.903391372209906112e+05
1.039639999999999986e+01 6.869340271888346178e+05
1.043490000000000073e+01 6.843532446005651727e+05
1.047339999999999982e+01 6.816366541651870357e+05
1.051190000000000069e+01 6.772183600801072316e+05
1.055039999999999978e+01 6.712291445384862600e+05
1.058890000000000065e+01 6.660519883018260589e+05
1.062739999999999974e+01 6.645613787565059029e+05
1.066590000000000060e+01 6.670493178399419412e+05
1.070439999999999969e+01 6.719627046945625916e+05
1.074290000000000056e+01 6.774003231914793141e+05
1.078139999999999965e+01 6.817947007440350717e+05
1.082000000000000028e+01 6.856144820087763947e+05
1.085849999999999937e+01 6.903512643354926258e+05
1.089700000000000024e+01 6.966374244679658441e+05
1.093549999999999933e+01 7.043490719477360835e+05
1.097400000000000020e+01 7.130685233209747821e+05
1.101249999999999929e+01 7.222583732202890096e+05
1.105100000000000016e+01 7.309783180780807743e+05
1.108949999999999925e+01 7.384885446105729789e+05
1.112800000000000011e+01 7.443412404055236839e+05
1.116649999999999920e+01 7.481423584334161133e+05
1.120500000000000007e+01 7.502324815596601693e+05
1.124349999999999916e+01 7.513259407735710265e+05
1.128200000000000003e+01 7.518087477473301115e+05
1.132049999999999912e+01 7.519128129405026557e+05
1.135899999999999999e+01 7.520648558433805592e+05
1.139750000000000085e+01 7.521579441762997303e+05
1.143599999999999994e+01 7.520320925003832672e+05
1.147450000000000081e+01 7.521474347140899627e+05
1.151299999999999990e+01 7.524405941627597203e+05
1.155160000000000053e+01 7.517284545819106279e+05
1.159009999999999962e+01 7.498915834354660474e+05
1.162860000000000049e+01 7.486136539605531143e+05
1.166709999999999958e+01 7.493578705882093636e+05
1.170560000000000045e+01 7.529542546475343406e+05
1.174409999999999954e+01 7.591012594207586953e+05
1.178260000000000041e+01 7.656938474238396157e+05
1.182109999999999950e+01 7.703504663840660360e+05
1.185960000000000036e+01 7.720835055420771241e+05
1.189809999999999945e+01 7.716165706828532275e+05
1.193660000000000032e+01 7.704454580537620932e+05
1.197509999999999941e+01 7.690048971565448446e+05
1.201360000000000028e+01 7.659530467147274176e+05
1.205209999999999937e+01 7.602034961683661677e+05
1.209060000000000024e+01 7.518751760105189169e+05
1.212909999999999933e+01 7.431314365517254919e+05
1.216760000000000019e+01 7.369607371687897248e+05
1.220609999999999928e+01 7.345328489807110745e+05
1.224460000000000015e+01 7.354940420784391463e+05
1.228309999999999924e+01 7.392336810142158065e+05
1.232169999999999987e+01 7.454173640924934298e+05
1.236020000000000074e+01 7.540581284557500621e+05
1.239869999999999983e+01 7.650548456507946830e+05
1.243720000000000070e+01 7.774542386137986323e+05
1.247569999999999979e+01 7.900302378458534367e+05
1.251420000000000066e+01 8.039790051528902259e+05
1.255269999999999975e+01 8.224442218071355019e+05
1.259120000000000061e+01 8.457532488086619414e+05
1.262969999999999970e+01 8.712413974065087968e+05
1.266820000000000057e+01 8.964167933032558067e+05
1.270669999999999966e+01 9.199092015542992158e+05
1.274520000000000053e+01 9.405573612969376845e+05
1.278369999999999962e+01 9.568202829800704494e+05
1.282220000000000049e+01 9.675923781816946575e+05
1.286069999999999958e+01 9.728459077143156901e+05
1.289920000000000044e+01 9.729985830204419326e+05
1.293769999999999953e+01 9.676613802646343829e+05
1.297620000000000040e+01 9.567221676732435590e+05
1.301469999999999949e+01 9.416876491529227933e+05
1.305330000000000013e+01 9.246558031721869484e+05
1.309179999999999922e+01 9.064014306151531637e+05
1.313030000000000008e+01 8.873007687685574638e+05
1.316879999999999917e+01 8.684521514216023497e+05
1.320730000000000004e+01 8.503101929709421238e+05
1.324579999999999913e+01 8.327334424242437817e+05
1.328430000000000000e+01 8.171704438675146084e+05
1.332280000000000086e+01 8.058129052808695706e+05
1.336129999999999995e+01 8.007304750517342472e+05
1.339980000000000082e+01 8.042032742985219229e+05
1.343829999999999991e+01 8.174251278886420187e+05
1.347680000000000078e+01 8.398849934841834474e+05
1.351529999999999987e+01 8.693168585591793526e+05
1.355380000000000074e+01 9.018275854625385255e+05
1.359229999999999983e+01 9.344870167909249431e+05
1.363080000000000069e+01 9.665426562818617094e+05
1.366929999999999978e+01 9.965090660339175956e+05
1.370780000000000065e+01 1.021197997853502631e+06
1.374629999999999974e+01 1.038488481145945378e+06
1.378490000000000038e+01 1.051821551661113277e+06
1.382339999999999947e+01 1.068475270486451685e+06
1.386190000000000033e+01 1.091997337402477395e+06
1.390039999999999942e+01 1.120031371024769265e+06
1.393890000000000029e+01 1.148045726501226658e+06
1.397739999999999938e+01 1.173284690853987588e+06
1.401590000000000025e+01 1.198307075545861386e+06
1.405439999999999934e+01 1.232262020102787996e+06
1.409290000000000020e+01 1.285040100593190873e+06
1.413139999999999930e+01 1.359811816021288279e+06
1.416990000000000016e+01 1.452851152492444264e+06
1.420839999999999925e+01 1.556672490338042611e+06
1.424690000000000012e+01 1.659779021919633029e+06
1.428539999999999921e+01 1.747302762308972189e+06
1.432390000000000008e+01 1.807059425624553813e+06
1.436239999999999917e+01 1.833850361229692120e+06
1.440090000000000003e+01 1.827236268816517899e+06
1.443939999999999912e+01 1.788918307944701053e+06
1.447789999999999999e+01 1.725335779035280691e+06
1.451640000000000086e+01 1.650614051892228657e+06
1.455499999999999972e+01 1.581576646943233907e+06
1.459350000000000058e+01 1.529285217661925126e+06
1.463199999999999967e+01 1.495276839005360147e+06
1.467050000000000054e+01 1.472333020836252021e+06
1.470899999999999963e+01 1.449814840295497794e+06
1.474750000000000050e+01 1.420690676748000318e+06
1.478599999999999959e+01 1.384224010527309263e+06
1.482450000000000045e+01 1.344836789284352446e+06
1.486299999999999955e+01 1.309036796925444622e+06
1.490150000000000041e+01 1.280734139102511574e+06
1.493999999999999950e+01 1.258836378361766692e+06
1.497850000000000037e+01 1.239152424627905013e+06
1.501699999999999946e+01 1.216675692742334912e+06
1.505550000000000033e+01 1.188136883850121871e+06
1.509399999999999942e+01 1.154804945900261402e+06
1.513250000000000028e+01 1.122178572105636820e+06
1.517099999999999937e+01 1.097355909610635834e+06
1.520950000000000024e+01 1.084831347610249650e+06
1.524799999999999933e+01 1.083374192195464158e+06
1.528659999999999997e+01 1.087076141734046163e+06
1.532510000000000083e+01 1.090221061504979618e+06
