# energy(eV) alpha
0.000000000000000000e+00 0.000000000000000000e+00
4.700000000000000011e-02 4.098112703094553555e-01
9.400000000000000022e-02 1.365992633976904180e+00
1.409999999999999865e-01 3.278220573453039410e+00
1.880000000000000004e-01 5.463341589436685020e+00
2.348999999999999977e-01 8.873325476643188381e+00
2.818999999999999839e-01 1.228573559312847863e+01
3.289000000000000257e-01 1.719873429090244699e+01
3.759000000000000119e-01 2.220109615650886070e+01
4.228999999999999981e-01 2.824799977015109320e+01
4.698999999999999844e-01 3.502020282777908733e+01
5.169000000000000261e-01 4.251628230457151147e+01
5.638999999999999568e-01 5.019059855162380046e+01
6.108999999999999986e-01 5.908719634014310174e+01
6.578000000000000513e-01 6.933136325300623071e+01
7.047999999999999821e-01 7.903240734882673735e+01
7.518000000000000238e-01 9.081570275892642030e+01
7.987999999999999545e-01 1.026346115584067462e+02
8.457999999999999963e-01 1.151706546079172284e+02
8.928000000000000380e-01 1.284205925029108926e+02
9.397999999999999687e-01 1.432902340571049535e+02
9.868000000000000105e-01 1.570571420200467685e+02
1.033800000000000052e+00 1.734369520930483475e+02
1.080699999999999994e+00 1.905961344484298365e+02
1.127699999999999925e+00 2.085669119817026171e+02
1.174700000000000077e+00 2.273302209127669187e+02
1.221700000000000008e+00 2.468823440138593810e+02
1.268699999999999939e+00 2.672219240165092060e+02
1.315700000000000092e+00 2.883479369825620893e+02
1.362700000000000022e+00 3.102547158594517214e+02
1.409699999999999953e+00 3.329409431908422334e+02
1.456700000000000106e+00 3.577995045275682742e+02
1.503600000000000048e+00 3.834922058468526984e+02
1.550599999999999978e+00 4.085840366533458905e+02
1.597599999999999909e+00 4.374977000453827713e+02
1.644600000000000062e+00 4.657765305020207620e+02
1.691599999999999993e+00 4.932800885277581528e+02
1.738599999999999923e+00 5.265222132878715229e+02
1.785600000000000076e+00 5.573658522036477052e+02
1.832600000000000007e+00 5.907922675762567906e+02
1.879599999999999937e+00 6.251262530812338127e+02
1.926500000000000101e+00 6.603379932613825076e+02
1.973500000000000032e+00 6.983604428443397865e+02
2.020500000000000185e+00 7.373630989104045739e+02
2.067499999999999893e+00 7.773478504322788467e+02
2.114500000000000046e+00 8.182966038508019437e+02
2.161500000000000199e+00 8.622547901266848385e+02
2.208499999999999908e+00 9.072522783299822322e+02
2.255500000000000060e+00 9.511491781425886529e+02
2.302500000000000213e+00 1.002515756377239086e+03
2.349400000000000155e+00 1.050578848508748251e+03
2.396399999999999864e+00 1.104210392026558793e+03
2.443400000000000016e+00 1.159002952918041501e+03
2.490400000000000169e+00 1.214953036466383082e+03
2.537399999999999878e+00 1.272031908274503621e+03
2.584400000000000031e+00 1.330255129945641329e+03
2.631400000000000183e+00 1.394506145406654014e+03
2.678399999999999892e+00 1.457531974464402538e+03
2.725400000000000045e+00 1.524274630816272975e+03
2.772299999999999986e+00 1.594784819352463956e+03
2.819300000000000139e+00 1.669265786124440865e+03
2.866299999999999848e+00 1.742453775946208225e+03
2.913300000000000001e+00 1.822326972405650622e+03
2.960300000000000153e+00 1.906344514424755516e+03
3.007299999999999862e+00 1.991833393577588822e+03
3.054300000000000015e+00 2.078755205049765209e+03
3.101300000000000168e+00 2.169970126869111482e+03
3.148299999999999876e+00 2.265552207701826319e+03
3.195199999999999818e+00 2.365519480579812807e+03
3.242199999999999971e+00 2.467111393185210090e+03
3.289200000000000124e+00 2.576286633525619436e+03
3.336199999999999832e+00 2.690158768827965559e+03
3.383199999999999985e+00 2.808822605567839219e+03
3.430200000000000138e+00 2.932316291514503973e+03
3.477199999999999847e+00 3.060742840341876217e+03
3.524199999999999999e+00 3.197352499302397518e+03
3.571200000000000152e+00 3.342289728338699661e+03
3.618100000000000094e+00 3.489120925402636203e+03
3.665099999999999802e+00 3.644550817579490285e+03
3.712099999999999955e+00 3.808626670252922850e+03
3.759100000000000108e+00 3.981518683447784042e+03
3.806099999999999817e+00 4.159941027503276018e+03
3.853099999999999969e+00 4.354179692952330697e+03
3.900100000000000122e+00 4.557636686234741319e+03
3.947099999999999831e+00 4.770390055096270771e+03
3.994099999999999984e+00 4.996096446029851904e+03
4.041000000000000369e+00 5.234731094003655926e+03
4.088000000000000078e+00 5.486751897309255583e+03
4.134999999999999787e+00 5.755716420109232786e+03
4.182000000000000384e+00 6.041834355913050786e+03
4.229000000000000092e+00 6.352580537541719423e+03
4.275999999999999801e+00 6.673554531504371880e+03
4.323000000000000398e+00 7.026965849972536489e+03
4.370000000000000107e+00 7.405680394897588485e+03
4.416999999999999815e+00 7.817443992815245110e+03
4.463899999999999757e+00 8.258577747902918418e+03
4.510900000000000354e+00 8.737053364322078778e+03
4.557900000000000063e+00 9.260663970755034825e+03
4.604899999999999771e+00 9.837254526301385340e+03
4.651900000000000368e+00 1.047872853974853388e+04
4.698900000000000077e+00 1.119683632841239523e+04
4.745899999999999785e+00 1.200358009199990556e+04
4.792900000000000382e+00 1.294610075627714104e+04
4.839900000000000091e+00 1.405240075207631162e+04
4.886800000000000033e+00 1.537032903765472838e+04
4.933799999999999741e+00 1.689743258842255818e+04
4.980800000000000338e+00 1.859484216182157979e+04
5.027800000000000047e+00 2.068206462728976476e+04
5.074799999999999756e+00 2.344644495687244125e+04
5.121800000000000352e+00 2.703495647304702288e+04
5.168800000000000061e+00 3.141097860671574745e+04
5.215799999999999770e+00 3.646186580422840780e+04
5.262800000000000367e+00 4.202791092380876944e+04
5.309700000000000308e+00 4.840743170513024961e+04
5.356700000000000017e+00 5.672878164784189721e+04
5.403699999999999726e+00 6.752694246450073842e+04
5.450700000000000323e+00 7.981269969356869115e+04
5.497700000000000031e+00 9.112803606038787984e+04
5.544699999999999740e+00 1.028042345270107326e+05
5.591700000000000337e+00 1.177181146245352138e+05
5.638700000000000045e+00 1.362137226971550263e+05
5.685699999999999754e+00 1.551437927061645314e+05
5.732599999999999696e+00 1.753982451860868896e+05
5.779600000000000293e+00 1.978473389308188343e+05
5.826600000000000001e+00 2.206155568102771067e+05
5.873599999999999710e+00 2.434785258589203586e+05
5.920600000000000307e+00 2.684983777538980357e+05
5.967600000000000016e+00 2.950172000708156265e+05
6.014599999999999724e+00 3.233307693358010147e+05
6.061600000000000321e+00 3.537266548621859401e+05
6.108600000000000030e+00 3.811942915130038164e+05
6.155499999999999972e+00 4.001519806415559724e+05
6.202499999999999680e+00 4.152598914806463872e+05
6.249500000000000277e+00 4.350556095887637930e+05
6.296499999999999986e+00 4.623252400814139401e+05
6.343499999999999694e+00 4.968013596755325561e+05
6.390500000000000291e+00 5.346634817674799124e+05
6.437500000000000000e+00 5.683122862789840437e+05
6.484499999999999709e+00 5.930585275044841692e+05
6.531500000000000306e+00 6.080404179893546971e+05
6.578400000000000247e+00 6.146270545226822142e+05
6.625399999999999956e+00 6.193342892519837478e+05
6.672399999999999665e+00 6.285731199896086473e+05
6.719400000000000261e+00 6.415473306856091367e+05
6.766399999999999970e+00 6.529151371787453536e+05
6.813399999999999679e+00 6.595428295727823861e+05
6.860400000000000276e+00 6.622735612808510195e+05
6.907399999999999984e+00 6.619064529834021814e+05
6.954399999999999693e+00 6.600482923233438050e+05
7.001299999999999635e+00 6.611727110047137830e+05
7.048300000000000232e+00 6.674025910760596162e+05
7.095299999999999940e+00 6.752004911648109555e+05
7.142299999999999649e+00 6.808207666841627797e+05
7.189300000000000246e+00 6.824038242752220249e+05
7.236299999999999955e+00 6.788272239071528893e+05
7.283299999999999663e+00 6.723788864634903148e+05
7.330300000000000260e+00 6.648727849327084841e+05
7.377299999999999969e+00 6.580767067609309452e+05
7.424199999999999910e+00 6.565517001528303372e+05
7.471199999999999619e+00 6.600246718474777881e+05
7.518200000000000216e+00 6.640505374043760821e+05
7.565199999999999925e+00 6.686161535568763502e+05
7.612199999999999633e+00 6.765709874323606491e+05
7.659200000000000230e+00 6.873723055840748129e+05
7.706199999999999939e+00 6.991831810335891787e+05
7.753199999999999648e+00 7.121789091421819758e+05
7.800200000000000244e+00 7.243464031269486295e+05
7.847100000000000186e+00 7.355433145200753352e+05
7.894099999999999895e+00 7.504111274035288952e+05
7.941099999999999604e+00 7.701169780157831265e+05
7.988100000000000200e+00 7.905096245679068379e+05
8.035099999999999909e+00 8.079761667848438956e+05
8.082100000000000506e+00 8.262778730648062192e+05
8.129099999999999326e+00 8.514526105357562192e+05
8.176099999999999923e+00 8.822302357050119899e+05
8.223100000000000520e+00 9.086520269166700309e+05
8.269999999999999574e+00 9.255510892650511814e+05
8.317000000000000171e+00 9.352744382274530362e+05
8.364000000000000767e+00 9.422711069877429400e+05
8.410999999999999588e+00 9.479795581189990044e+05
8.458000000000000185e+00 9.512613875373717165e+05
8.505000000000000782e+00 9.544454169177527074e+05
8.551999999999999602e+00 9.608590509489838732e+05
8.599000000000000199e+00 9.658498103702360531e+05
8.646000000000000796e+00 9.632876390997604467e+05
8.692899999999999849e+00 9.523705208067093045e+05
8.739900000000000446e+00 9.373102396495555295e+05
8.786899999999999267e+00 9.231801447220622795e+05
8.833899999999999864e+00 9.113374818263497436e+05
8.880900000000000460e+00 9.006129228822275763e+05
8.927899999999999281e+00 8.918438614799855277e+05
8.974899999999999878e+00 8.842304890344854211e+05
9.021900000000000475e+00 8.717934779413287761e+05
9.068899999999999295e+00 8.509571513390635373e+05
9.115800000000000125e+00 8.251944737644537818e+05
9.162800000000000722e+00 8.042890260008188197e+05
9.209799999999999542e+00 7.929042115963067627e+05
9.256800000000000139e+00 7.853929552863697754e+05
9.303800000000000736e+00 7.757272762755947188e+05
9.350799999999999557e+00 7.669894365102048032e+05
9.397800000000000153e+00 7.584829902307223529e+05
9.444800000000000750e+00 7.444082119273797143e+05
9.491799999999999571e+00 7.257369685987494886e+05
9.538700000000000401e+00 7.121403476271323161e+05
9.585699999999999221e+00 7.078031674096955685e+05
9.632699999999999818e+00 7.094777125103662256e+05
9.679700000000000415e+00 7.158578291613716865e+05
9.726699999999999235e+00 7.255272002982838312e+05
9.773699999999999832e+00 7.360340997788273962e+05
9.820700000000000429e+00 7.428620893590572523e+05
9.867699999999999250e+00 7.404131887131030671e+05
9.914699999999999847e+00 7.278203035112330690e+05
9.961600000000000676e+00 7.088674466381488601e+05
1.000859999999999950e+01 6.901074156110199401e+05
1.005560000000000009e+01 6.752753784843796166e+05
1.010260000000000069e+01 6.619407943785117241e+05
1.014959999999999951e+01 6.498163253294216702e+05
1.019660000000000011e+01 6.410290257240460487e+05
1.024360000000000070e+01 6.344160564864291809e+05
1.029059999999999953e+01 6.277396109377688263e+05
1.033760000000000012e+01 6.225776467469177442e+05
1.038449999999999918e+01 6.203278763046822278e+05
1.043149999999999977e+01 6.198881584056009306e+05
1.047850000000000037e+01 6.190603088968638331e+05
1.052549999999999919e+01 6.167746066797837848e+05
1.057249999999999979e+01 6.136188423764237668e+05
1.061950000000000038e+01 6.104527125943172723e+05
1.066649999999999920e+01 6.094566126421913505e+05
1.071349999999999980e+01 6.121319001547265798e+05
1.076050000000000040e+01 6.180391072468719212e+05
1.080749999999999922e+01 6.270649821279435419e+05
1.085440000000000005e+01 6.399500910901089665e+05
1.090140000000000065e+01 6.561943642213658895e+05
1.094839999999999947e+01 6.756758638249533251e+05
1.099540000000000006e+01 6.990055250214501284e+05
1.104240000000000066e+01 7.240225812291225884e+05
1.108939999999999948e+01 7.458413018108848482e+05
1.113640000000000008e+01 7.605517014872831060e+05
1.118340000000000067e+01 7.683147112696886761e+05
1.123039999999999949e+01 7.727551557732565561e+05
1.127730000000000032e+01 7.777397337400368415e+05
1.132429999999999914e+01 7.848591111039201496e+05
1.137129999999999974e+01 7.943335579518969171e+05
1.141830000000000034e+01 8.053053720511116553e+05
1.146529999999999916e+01 8.146271883830087027e+05
1.151229999999999976e+01 8.202267896253213985e+05
1.155930000000000035e+01 8.249632189022174571e+05
1.160629999999999917e+01 8.329125191140273819e+05
1.165329999999999977e+01 8.449610660116424551e+05
1.170020000000000060e+01 8.584294601633562706e+05
1.174719999999999942e+01 8.717895763298068196e+05
1.179420000000000002e+01 8.834049654618827626e+05
1.184120000000000061e+01 8.941209805674194358e+05
1.188819999999999943e+01 9.077597377610927215e+05
1.193520000000000003e+01 9.264082526536810910e+05
1.198220000000000063e+01 9.441413836112836143e+05
1.202919999999999945e+01 9.555796560836565914e+05
1.207620000000000005e+01 9.609541220599961234e+05
1.212310000000000088e+01 9.563852970819973852e+05
1.217009999999999970e+01 9.453263000767022604e+05
1.221710000000000029e+01 9.381540757720253896e+05
1.226409999999999911e+01 9.381803146049937932e+05
1.231109999999999971e+01 9.454351025538434042e+05
1.235810000000000031e+01 9.617324128717539134e+05
1.240509999999999913e+01 9.841133882513036951e+05
1.245209999999999972e+01 1.008235106843305402e+06
1.249910000000000032e+01 1.032783768690460711e+06
1.254599999999999937e+01 1.054131449523641495e+06
1.259299999999999997e+01 1.068729345438089920e+06
1.264000000000000057e+01 1.081931933256364660e+06
1.268699999999999939e+01 1.102733119931751164e+06
1.273399999999999999e+01 1.127246284809146775e+06
1.278100000000000058e+01 1.151291457320702961e+06
1.282799999999999940e+01 1.174823854973714799e+06
1.287500000000000000e+01 1.198877935387250967e+06
1.292200000000000060e+01 1.223048741595468950e+06
1.296889999999999965e+01 1.244531138486933429e+06
1.301590000000000025e+01 1.262643592419810593e+06
1.306290000000000084e+01 1.278110115939695388e+06
1.310989999999999966e+01 1.286846828422382241e+06
1.315690000000000026e+01 1.296153608481857227e+06
1.320390000000000086e+01 1.315778951135433279e+06
1.325089999999999968e+01 1.344728782225048635e+06
1.329790000000000028e+01 1.369681785927816527e+06
1.334490000000000087e+01 1.379397536563104717e+06
1.339179999999999993e+01 1.376880102956408635e+06
1.343880000000000052e+01 1.377462021435508039e+06
1.348579999999999934e+01 1.393604188194582472e+06
1.353279999999999994e+01 1.426035668181124842e+06
1.357980000000000054e+01 1.461771856674478156e+06
1.362679999999999936e+01 1.480934778214166407e+06
1.367379999999999995e+01 1.468051267306018155e+06
1.372080000000000055e+01 1.427964750211438164e+06
1.376779999999999937e+01 1.386039813343695831e+06
1.381470000000000020e+01 1.365730386859615799e+06
1.386170000000000080e+01 1.375394189994058805e+06
1.390869999999999962e+01 1.403594760563988239e+06
1.395570000000000022e+01 1.432983968157661380e+06
1.400270000000000081e+01 1.465629905212990474e+06
1.404969999999999963e+01 1.509251632913791807e+06
1.409670000000000023e+01 1.558575754071437055e+06
1.414370000000000083e+01 1.611161870509486878e+06
1.419069999999999965e+01 1.667445143329025013e+06
1.423760000000000048e+01 1.719984412502182880e+06
1.428459999999999930e+01 1.773164073422182119e+06
1.433159999999999989e+01 1.838214579875648953e+06
1.437860000000000049e+01 1.911068545679046772e+06
1.442559999999999931e+01 1.984358047600120306e+06
1.447259999999999991e+01 2.051477899118997622e+06
1.451960000000000051e+01 2.102075643028071150e+06
1.456659999999999933e+01 2.129552090269981418e+06
1.461359999999999992e+01 2.145486166602855083e+06
1.466050000000000075e+01 2.166392464540285990e+06
1.470749999999999957e+01 2.188607644095053431e+06
1.475450000000000017e+01 2.189915903183754999e+06
1.480150000000000077e+01 2.159577063917477150e+06
1.484849999999999959e+01 2.115209972334409133e+06
1.489550000000000018e+01 2.085228861076987348e+06
1.494250000000000078e+01 2.071863895576513372e+06
1.498949999999999960e+01 2.050512522646168713e+06
1.503650000000000020e+01 2.009637913645957131e+06
1.508339999999999925e+01 1.961461467709258664e+06
1.513039999999999985e+01 1.916561103915706044e+06
1.517740000000000045e+01 1.873796965221297462e+06
1.522439999999999927e+01 1.831556887370350538e+06
1.527139999999999986e+01 1.798237087841488421e+06
1.531840000000000046e+01 1.780954158980717650e+06
1.536539999999999928e+01 1.769884344080340350e+06
1.541239999999999988e+01 1.747428031042377697e+06
1.545940000000000047e+01 1.703787252628901741e+06
1.550629999999999953e+01 1.642180617064017802e+06
1.555330000000000013e+01 1.574653205941283843e+06
1.560030000000000072e+01 1.514009384454783052e+06
1.564729999999999954e+01 1.470360832562679425e+06
1.569430000000000014e+01 1.454361587844916387e+06
1.574130000000000074e+01 1.468551825231437804e+06
1.578829999999999956e+01 1.495276040858921595e+06
1.583530000000000015e+01 1.512594150723875500e+06
1.588230000000000075e+01 1.508890384949746309e+06
1.592919999999999980e+01 1.485797920477679465e+06
1.597620000000000040e+01 1.450262267538762419e+06
1.602319999999999922e+01 1.410850544235455804e+06
1.607019999999999982e+01 1.375110799858099315e+06
1.611720000000000041e+01 1.349691737699200166e+06
1.616420000000000101e+01 1.337662173392317258e+06
1.621120000000000161e+01 1.329351453466969775e+06
1.625819999999999865e+01 1.311973763389882864e+06
1.630519999999999925e+01 1.281729613306612941e+06
1.635210000000000008e+01 1.245008019970997469e+06
1.639910000000000068e+01 1.214450070330083836e+06
1.644610000000000127e+01 1.199387495621467242e+06
1.649309999999999832e+01 1.198482725027397042e+06
1.654009999999999891e+01 1.202538494898215868e+06
1.658709999999999951e+01 1.205620365519836079e+06
1.663410000000000011e+01 1.208311122869073180e+06
1.668110000000000070e+01 1.211649988257921999e+06
1.672810000000000130e+01 1.214260151016445830e+06
1.677499999999999858e+01 1.211729841941655846e+06
1.682199999999999918e+01 1.200209577489889460e+06
1.686899999999999977e+01 1.179719480518843047e+06
1.691600000000000037e+01 1.155882889675961109e+06
1.696300000000000097e+01 1.133908730759790866e+06
1.701000000000000156e+01 1.116911423397267470e+06
1.705699999999999861e+01 1.104272385564563796e+06
1.710399999999999920e+01 1.094697039775550365e+06
1.715099999999999980e+01 1.089025877170896158e+06
1.719790000000000063e+01 1.086259514386566356e+06
1.724490000000000123e+01 1.081977720736197662e+06
1.729189999999999827e+01 1.072168252421204699e+06
1.733889999999999887e+01 1.060304708827949129e+06
1.738589999999999947e+01 1.052618890491692116e+06
1.743290000000000006e+01 1.052726903988607693e+06
1.747990000000000066e+01 1.058650626269162865e+06
1.752690000000000126e+01 1.064878979625800392e+06
1.757389999999999830e+01 1.068744772831005044e+06
1.762079999999999913e+01 1.069977311216061935e+06
1.766779999999999973e+01 1.069712154722710373e+06
1.771480000000000032e+01 1.069321302511453396e+06
1.776180000000000092e+01 1.070735404580625007e+06
1.780880000000000152e+01 1.074504390301335836e+06
1.785579999999999856e+01 1.081913424087722553e+06
1.790279999999999916e+01 1.091766145707051735e+06
1.794979999999999976e+01 1.096712313331726706e+06
1.799680000000000035e+01 1.091267229402476922e+06
1.804370000000000118e+01 1.075793475670299493e+06
1.809069999999999823e+01 1.056399537104101386e+06
1.813769999999999882e+01 1.039396942916456377e+06
1.818469999999999942e+01 1.027646682005325332e+06
1.823170000000000002e+01 1.022334549328406691e+06
1.827870000000000061e+01 1.022820656795438845e+06
1.832570000000000121e+01 1.025304494622027501e+06
1.837269999999999825e+01 1.026976226826637168e+06
1.841969999999999885e+01 1.031727387924114242e+06
1.846659999999999968e+01 1.042681814492044388e+06
1.851360000000000028e+01 1.059054497833980480e+06
1.856060000000000088e+01 1.075702718794743763e+06
1.860760000000000147e+01 1.084986855309921317e+06
1.865459999999999852e+01 1.087250702821228188e+06
1.870159999999999911e+01 1.088032705860809656e+06
