# energy(eV) alpha
0.000000000000000000e+00 0.000000000000000000e+00
3.300000000000000155e-02 2.225062214947882211e+01
6.590000000000000024e-02 9.012082768928790699e+01
9.890000000000000180e-02 2.081165069499997173e+02
1.318999999999999895e-01 3.839476597901400510e+02
1.648999999999999910e-01 6.301373734567840756e+02
1.978000000000000036e-01 9.653078158736014984e+02
2.308000000000000052e-01 1.420425677027405982e+03
2.637999999999999790e-01 2.040844424417023220e+03
2.968000000000000083e-01 2.900836111006143710e+03
3.296999999999999931e-01 4.117200657844347916e+03
3.627000000000000224e-01 5.885346488538793892e+03
3.956999999999999962e-01 8.503456215434705882e+03
4.287000000000000255e-01 1.235409548761381666e+04
4.616000000000000103e-01 1.762904471943765020e+04
4.945999999999999841e-01 2.372879362802384276e+04
5.275999999999999579e-01 2.927588455065503513e+04
5.604999999999999982e-01 3.278944453089178569e+04
5.935000000000000275e-01 3.275597257691387858e+04
6.264999999999999458e-01 2.937961648934302139e+04
6.594999999999999751e-01 2.499198408578062299e+04
6.924000000000000155e-01 2.153867679065544507e+04
7.254000000000000448e-01 1.960569395878874639e+04
7.583999999999999631e-01 1.914898838091435391e+04
7.913999999999999924e-01 2.011853750921845131e+04
8.243000000000000327e-01 2.265834509139934380e+04
8.572999999999999510e-01 2.717642596881319696e+04
8.902999999999999803e-01 3.423592209539724718e+04
9.233000000000000096e-01 4.398242699375521624e+04
9.562000000000000499e-01 5.503640127208097692e+04
9.891999999999999682e-01 6.508085991961577383e+04
1.022199999999999998e+00 7.285979111171835393e+04
1.055099999999999927e+00 7.682132573882960423e+04
1.088100000000000067e+00 7.480261738533596508e+04
1.121099999999999985e+00 6.760919933745288290e+04
1.154099999999999904e+00 5.962424753689856152e+04
1.187000000000000055e+00 5.462576776984555181e+04
1.219999999999999973e+00 5.399199395144951995e+04
1.252999999999999892e+00 5.798399325240758481e+04
1.286000000000000032e+00 6.644001524180702108e+04
1.318899999999999961e+00 7.806221345807293255e+04
1.351900000000000102e+00 9.035185152998601552e+04
1.384900000000000020e+00 1.015285249750882795e+05
1.417899999999999938e+00 1.116803952707615390e+05
1.450800000000000090e+00 1.213120975720042479e+05
1.483800000000000008e+00 1.293252279255489993e+05
1.516799999999999926e+00 1.330710086098220781e+05
1.549700000000000077e+00 1.315719958647480235e+05
1.582699999999999996e+00 1.283729801549584809e+05
1.615699999999999914e+00 1.278331644574891689e+05
1.648700000000000054e+00 1.324867879127460765e+05
1.681599999999999984e+00 1.427890428786405537e+05
1.714599999999999902e+00 1.564342529598341498e+05
1.747600000000000042e+00 1.706297237368660572e+05
1.780599999999999961e+00 1.839398039183431829e+05
1.813499999999999890e+00 1.959820112779326446e+05
1.846500000000000030e+00 2.072771843407723645e+05
1.879499999999999948e+00 2.179083452581638121e+05
1.912500000000000089e+00 2.265640161853510072e+05
1.945400000000000018e+00 2.319887009083228768e+05
1.978399999999999936e+00 2.344557771787839010e+05
2.011400000000000077e+00 2.349264891997388040e+05
2.044299999999999784e+00 2.345849253554414026e+05
2.077300000000000146e+00 2.347041935619564611e+05
2.110300000000000065e+00 2.352556320142851619e+05
2.143299999999999983e+00 2.366543265498561668e+05
2.176200000000000134e+00 2.410219905806021125e+05
2.209200000000000053e+00 2.489211344306733808e+05
2.242199999999999971e+00 2.597772849561928597e+05
2.275199999999999889e+00 2.716696407035128796e+05
2.308100000000000041e+00 2.803284868683133391e+05
2.341099999999999959e+00 2.796306875529597164e+05
2.374099999999999877e+00 2.678824826532012084e+05
2.407099999999999795e+00 2.496669951798580878e+05
2.439999999999999947e+00 2.325726963525536412e+05
2.472999999999999865e+00 2.229805702043431811e+05
2.505999999999999783e+00 2.218535125786701101e+05
2.538899999999999935e+00 2.257214752217031200e+05
2.571899999999999853e+00 2.298775793504690810e+05
2.604900000000000215e+00 2.329752833846850845e+05
2.637900000000000134e+00 2.400101994959392759e+05
2.670799999999999841e+00 2.566464110785088851e+05
2.703800000000000203e+00 2.821698955513128894e+05
2.736800000000000122e+00 3.086385423893055995e+05
2.769800000000000040e+00 3.270140725631300011e+05
2.802700000000000191e+00 3.344599919173229137e+05
2.835700000000000109e+00 3.341275901339651900e+05
2.868700000000000028e+00 3.305807198072350002e+05
2.901699999999999946e+00 3.264169662619462470e+05
2.934600000000000097e+00 3.228333033234241302e+05
2.967600000000000016e+00 3.226896039517654572e+05
3.000599999999999934e+00 3.295333708027913235e+05
3.033500000000000085e+00 3.432703656482887454e+05
3.066500000000000004e+00 3.602166128260614350e+05
3.099499999999999922e+00 3.764997467043202487e+05
3.132499999999999840e+00 3.879150237692433875e+05
3.165399999999999991e+00 3.904478253562807222e+05
3.198399999999999910e+00 3.853616625627652975e+05
3.231399999999999828e+00 3.759326993303946801e+05
3.264400000000000190e+00 3.643018690353214624e+05
3.297299999999999898e+00 3.540148993614770588e+05
3.330299999999999816e+00 3.464698098013220006e+05
3.363300000000000178e+00 3.393684874215850723e+05
3.396300000000000097e+00 3.314055837927117827e+05
3.429199999999999804e+00 3.229799038055041456e+05
3.462200000000000166e+00 3.171134344001557911e+05
3.495200000000000085e+00 3.183323976739726495e+05
3.528099999999999792e+00 3.296257247734917328e+05
3.561100000000000154e+00 3.507969967571275192e+05
3.594100000000000072e+00 3.778401590910661616e+05
3.627099999999999991e+00 4.054219967064469238e+05
3.660000000000000142e+00 4.290840403800052009e+05
3.693000000000000060e+00 4.449754547989522689e+05
3.725999999999999979e+00 4.516040801544300630e+05
3.758999999999999897e+00 4.521670858244770789e+05
3.791900000000000048e+00 4.521355985025718692e+05
3.824899999999999967e+00 4.553909855150443036e+05
3.857899999999999885e+00 4.636562192383833462e+05
3.890899999999999803e+00 4.770547493495481322e+05
3.923799999999999955e+00 4.938080420987980324e+05
3.956799999999999873e+00 5.098863834756507422e+05
3.989799999999999791e+00 5.199744674200722366e+05
4.022700000000000387e+00 5.206292862811639789e+05
4.055699999999999861e+00 5.113523099374757148e+05
4.088700000000000223e+00 4.927327771895396290e+05
4.121699999999999697e+00 4.667660326455518370e+05
4.154600000000000293e+00 4.377281081905823667e+05
4.187599999999999767e+00 4.099678046504409867e+05
4.220600000000000129e+00 3.862550672120322124e+05
4.253599999999999604e+00 3.682160065670595504e+05
4.286500000000000199e+00 3.572508976356288185e+05
4.319499999999999673e+00 3.540308646326357266e+05
4.352500000000000036e+00 3.570441523338043480e+05
4.385500000000000398e+00 3.632278990598235978e+05
4.418400000000000105e+00 3.701871221872129245e+05
4.451399999999999579e+00 3.777086888154099579e+05
4.484399999999999942e+00 3.853876718653933494e+05
4.517299999999999649e+00 3.910973993128254078e+05
4.550300000000000011e+00 3.930725191697280388e+05
4.583300000000000374e+00 3.918483956679841504e+05
4.616299999999999848e+00 3.891214588130397606e+05
4.649200000000000443e+00 3.859645646481678705e+05
4.682199999999999918e+00 3.835000426273465273e+05
4.715200000000000280e+00 3.824733574883440742e+05
4.748199999999999754e+00 3.825303520687128184e+05
4.781100000000000350e+00 3.826391972424029373e+05
4.814099999999999824e+00 3.825478673329714220e+05
4.847100000000000186e+00 3.827546734297933290e+05
4.880099999999999660e+00 3.835246804934897227e+05
4.913000000000000256e+00 3.848260710367160500e+05
4.945999999999999730e+00 3.866301369876300450e+05
4.979000000000000092e+00 3.886172614413929405e+05
5.011899999999999800e+00 3.902630099227082683e+05
5.044900000000000162e+00 3.909224939403714961e+05
5.077899999999999636e+00 3.908012590394979343e+05
5.110899999999999999e+00 3.914701282859795028e+05
5.143799999999999706e+00 3.936603787498471211e+05
5.176800000000000068e+00 3.959799469620215823e+05
5.209800000000000431e+00 3.969990429330600891e+05
5.242799999999999905e+00 3.968835166655007051e+05
5.275699999999999612e+00 3.962088757326090708e+05
5.308699999999999974e+00 3.949396724258132745e+05
5.341700000000000337e+00 3.923421851362995221e+05
5.374699999999999811e+00 3.876427354296439444e+05
5.407600000000000406e+00 3.810162279489586363e+05
5.440599999999999881e+00 3.737262326699358528e+05
5.473600000000000243e+00 3.669373502864045440e+05
5.506499999999999950e+00 3.610811160262653138e+05
5.539500000000000313e+00 3.564826855292674736e+05
5.572499999999999787e+00 3.534136007774496102e+05
5.605500000000000149e+00 3.515755560380753595e+05
5.638399999999999856e+00 3.503121837500127149e+05
5.671400000000000219e+00 3.491443842823223094e+05
5.704399999999999693e+00 3.478115900889963377e+05
5.737400000000000055e+00 3.463435396539171343e+05
5.770299999999999763e+00 3.445160355467841146e+05
5.803300000000000125e+00 3.420682658834503382e+05
5.836299999999999599e+00 3.399511862868040334e+05
5.869299999999999962e+00 3.400045884696581634e+05
5.902199999999999669e+00 3.434771876522440580e+05
5.935200000000000031e+00 3.503999775212474633e+05
5.968200000000000394e+00 3.602005236808473710e+05
6.001100000000000101e+00 3.725611294581411057e+05
6.034099999999999575e+00 3.871632231549967546e+05
6.067099999999999937e+00 4.030962635532286367e+05
6.100100000000000300e+00 4.191608760149651207e+05
6.133000000000000007e+00 4.341438079437844572e+05
6.166000000000000369e+00 4.475080145020640339e+05
6.198999999999999844e+00 4.597381458211006247e+05
6.232000000000000206e+00 4.715281669056484825e+05
6.264899999999999913e+00 4.826207262176941731e+05
6.297900000000000276e+00 4.927988838023677235e+05
6.330899999999999750e+00 5.030592858541812166e+05
6.363800000000000345e+00 5.148064050105510978e+05
6.396799999999999820e+00 5.287690808833811898e+05
6.429800000000000182e+00 5.451228742823711364e+05
6.462799999999999656e+00 5.635909487967275782e+05
6.495700000000000252e+00 5.833005857095118845e+05
6.528699999999999726e+00 6.033351766501006205e+05
6.561700000000000088e+00 6.233038508486668579e+05
6.594699999999999562e+00 6.430718485026673879e+05
6.627600000000000158e+00 6.624486833297978155e+05
6.660599999999999632e+00 6.811491384656905429e+05
6.693599999999999994e+00 6.988119169910231140e+05
6.726600000000000357e+00 7.150145871754795080e+05
6.759500000000000064e+00 7.290428089177593356e+05
6.792500000000000426e+00 7.405244387203826336e+05
6.825499999999999901e+00 7.504360106286701048e+05
6.858399999999999608e+00 7.600487626377302222e+05
6.891399999999999970e+00 7.696691768557812320e+05
6.924400000000000333e+00 7.788072420635449234e+05
6.957399999999999807e+00 7.866110690610964084e+05
6.990300000000000402e+00 7.927990139391006669e+05
7.023299999999999876e+00 7.984650466214470798e+05
7.056300000000000239e+00 8.048825059515063185e+05
7.089299999999999713e+00 8.122897664265822386e+05
7.122200000000000308e+00 8.199088994049932808e+05
7.155199999999999783e+00 8.266305142926505068e+05
7.188200000000000145e+00 8.317085222553233616e+05
7.221199999999999619e+00 8.346397771436587209e+05
7.254100000000000215e+00 8.345734235690282658e+05
7.287099999999999689e+00 8.308561843669631053e+05
7.320100000000000051e+00 8.233794451918466948e+05
7.352999999999999758e+00 8.129121979551167460e+05
7.386000000000000121e+00 8.010379768961389782e+05
7.418999999999999595e+00 7.891972788676142227e+05
7.451999999999999957e+00 7.781478974428942893e+05
7.484899999999999665e+00 7.681990589993903413e+05
7.517900000000000027e+00 7.592855134645096259e+05
7.550900000000000389e+00 7.513280665181387449e+05
7.583899999999999864e+00 7.447830786768735852e+05
7.616799999999999571e+00 7.400648076788068283e+05
7.649799999999999933e+00 7.374205507935099304e+05
7.682800000000000296e+00 7.367965685867395950e+05
7.715799999999999770e+00 7.375519558511603391e+05
7.748700000000000365e+00 7.389882468897983199e+05
7.781699999999999839e+00 7.407347002423696686e+05
7.814700000000000202e+00 7.423962241371456767e+05
7.847599999999999909e+00 7.431988843415935989e+05
7.880600000000000271e+00 7.423856441481417278e+05
7.913599999999999746e+00 7.402110491004697978e+05
7.946600000000000108e+00 7.379607942214815412e+05
7.979499999999999815e+00 7.365754366784874583e+05
8.012499999999999289e+00 7.359366538336894009e+05
8.045500000000000540e+00 7.346992482891049003e+05
8.078500000000000014e+00 7.319216054841257865e+05
8.111399999999999721e+00 7.282339263849593699e+05
8.144399999999999196e+00 7.244192150653561112e+05
8.177400000000000446e+00 7.199224806947096949e+05
8.210399999999999920e+00 7.140864628748921677e+05
8.243299999999999628e+00 7.073856875759745017e+05
8.276300000000000878e+00 7.008062285936202388e+05
8.309300000000000352e+00 6.951081051964102080e+05
8.342200000000000060e+00 6.910689844484304776e+05
8.375199999999999534e+00 6.891128648045639275e+05
8.408200000000000784e+00 6.887568490014300914e+05
8.441200000000000259e+00 6.894155656502601923e+05
8.474099999999999966e+00 6.913829448673869483e+05
8.507099999999999440e+00 6.957076091201897943e+05
8.540100000000000691e+00 7.022970417214676272e+05
8.573100000000000165e+00 7.101256440163649386e+05
8.605999999999999872e+00 7.183143837034425233e+05
8.638999999999999346e+00 7.263806243014130741e+05
8.672000000000000597e+00 7.342550163046204252e+05
8.705000000000000071e+00 7.425083691621457692e+05
8.737899999999999778e+00 7.520109012170800706e+05
8.770899999999999253e+00 7.632731108793320600e+05
8.803900000000000503e+00 7.766199193190060323e+05
8.836800000000000210e+00 7.921116161551461555e+05
8.869799999999999685e+00 8.095112697874918813e+05
8.902799999999999159e+00 8.279526585373815615e+05
8.935800000000000409e+00 8.465031698989520082e+05
8.968700000000000117e+00 8.645732493613611441e+05
9.001699999999999591e+00 8.817370182213995140e+05
9.034700000000000841e+00 8.966927362261731178e+05
9.067700000000000315e+00 9.082911830332659883e+05
9.100600000000000023e+00 9.176604341338527156e+05
9.133599999999999497e+00 9.271226892782392679e+05
9.166600000000000747e+00 9.380748309776998358e+05
9.199600000000000222e+00 9.507035979866820853e+05
9.232499999999999929e+00 9.645662054366773227e+05
9.265499999999999403e+00 9.788494053896905389e+05
9.298500000000000654e+00 9.925738959294438828e+05
9.331400000000000361e+00 1.005022693193568964e+06
9.364399999999999835e+00 1.016184378860932193e+06
9.397399999999999309e+00 1.026198153029779904e+06
9.430400000000000560e+00 1.034981531540796277e+06
9.463300000000000267e+00 1.042385787067682133e+06
9.496299999999999741e+00 1.048198058320095646e+06
9.529299999999999216e+00 1.052256271538660163e+06
9.562300000000000466e+00 1.054280077198455576e+06
9.595200000000000173e+00 1.054175688572801417e+06
9.628199999999999648e+00 1.052735543061201926e+06
9.661199999999999122e+00 1.050338337933163159e+06
9.694200000000000372e+00 1.046328006608842872e+06
9.727100000000000080e+00 1.040440738265672931e+06
9.760099999999999554e+00 1.033585464432996931e+06
9.793100000000000804e+00 1.027295988830803428e+06
9.826000000000000512e+00 1.021863522078861482e+06
9.858999999999999986e+00 1.016106977579211816e+06
9.891999999999999460e+00 1.008762627301771077e+06
9.925000000000000711e+00 9.992806825363625539e+05
9.957900000000000418e+00 9.883335135946617229e+05
9.990899999999999892e+00 9.776718069414175116e+05
1.002389999999999937e+01 9.690685371243119007e+05
1.005690000000000062e+01 9.633320927506124135e+05
1.008980000000000032e+01 9.599381241097756429e+05
1.012279999999999980e+01 9.577635026187560288e+05
1.015579999999999927e+01 9.558756447789951926e+05
1.018880000000000052e+01 9.539502229963667924e+05
1.022170000000000023e+01 9.515857202921691351e+05
1.025469999999999970e+01 9.481828859370819991e+05
1.028769999999999918e+01 9.437757934662972111e+05
1.032060000000000066e+01 9.391958371137463255e+05
1.035360000000000014e+01 9.352143307094648480e+05
1.038659999999999961e+01 9.313413502021974418e+05
1.041960000000000086e+01 9.271151565230713459e+05
1.045250000000000057e+01 9.234441341466750018e+05
1.048550000000000004e+01 9.216277393383814488e+05
1.051849999999999952e+01 9.220408953951906879e+05
1.055150000000000077e+01 9.239070705029803794e+05
1.058440000000000047e+01 9.260271514343402814e+05
1.061739999999999995e+01 9.281914094422112685e+05
1.065039999999999942e+01 9.309459736318081850e+05
1.068340000000000067e+01 9.342736647728749085e+05
1.071630000000000038e+01 9.371783269005093025e+05
1.074929999999999986e+01 9.389645045590765076e+05
1.078229999999999933e+01 9.396294433575508883e+05
1.081520000000000081e+01 9.396257234333658125e+05
1.084820000000000029e+01 9.395057920050155371e+05
1.088119999999999976e+01 9.391623822039443767e+05
1.091419999999999924e+01 9.377125697796447203e+05
1.094710000000000072e+01 9.345419994356787065e+05
1.098010000000000019e+01 9.303638668565694243e+05
1.101309999999999967e+01 9.266437097521253163e+05
1.104609999999999914e+01 9.240735673411932075e+05
1.107900000000000063e+01 9.219186069149611285e+05
1.111200000000000010e+01 9.192942425800092751e+05
1.114499999999999957e+01 9.160602456520068226e+05
1.117800000000000082e+01 9.123730638256738894e+05
1.121090000000000053e+01 9.084953567977295024e+05
1.124390000000000001e+01 9.052501896531019593e+05
1.127689999999999948e+01 9.034319275649319170e+05
1.130979999999999919e+01 9.026049004976473516e+05
1.134280000000000044e+01 9.008082800915831467e+05
1.137579999999999991e+01 8.963982684242503019e+05
1.140879999999999939e+01 8.890427808415419422e+05
1.144170000000000087e+01 8.792632947601339547e+05
1.147470000000000034e+01 8.683537667896272615e+05
1.150769999999999982e+01 8.574128722062504385e+05
1.154069999999999929e+01 8.463749844919129973e+05
1.157360000000000078e+01 8.346120453375157667e+05
1.160660000000000025e+01 8.217464170501277549e+05
1.163959999999999972e+01 8.075107470945065143e+05
1.167259999999999920e+01 7.925137764284441946e+05
1.170550000000000068e+01 7.776563350584815489e+05
1.173850000000000016e+01 7.633776225882481085e+05
1.177149999999999963e+01 7.499489263026288245e+05
1.180439999999999934e+01 7.380455997522423277e+05
1.183740000000000059e+01 7.281160957859404152e+05
1.187040000000000006e+01 7.196459143943213858e+05
1.190339999999999954e+01 7.120796528701561037e+05
1.193629999999999924e+01 7.047716046443136875e+05
1.196930000000000049e+01 6.972600259675747948e+05
1.200229999999999997e+01 6.899176659931731410e+05
1.203529999999999944e+01 6.829900289500481449e+05
1.206819999999999915e+01 6.761856402627475327e+05
1.210120000000000040e+01 6.690838090216888813e+05
1.213419999999999987e+01 6.614487184468159685e+05
1.216719999999999935e+01 6.539818990133322077e+05
1.220010000000000083e+01 6.473797623604347464e+05
1.223310000000000031e+01 6.424229301802293630e+05
1.226609999999999978e+01 6.407435391074661165e+05
1.229899999999999949e+01 6.440593655429467326e+05
1.233200000000000074e+01 6.525704139688793803e+05
1.236500000000000021e+01 6.648921891008520033e+05
1.239799999999999969e+01 6.794312495939815417e+05
1.243089999999999939e+01 6.945905321035925299e+05
1.246390000000000065e+01 7.093003447653689655e+05
1.249690000000000012e+01 7.234854437407912919e+05
1.252989999999999959e+01 7.370677721707297023e+05
1.256279999999999930e+01 7.502392856933351140e+05
1.259580000000000055e+01 7.640218107201813255e+05
1.262880000000000003e+01 7.794155433475460159e+05
1.266179999999999950e+01 7.973614225438160356e+05
1.269469999999999921e+01 8.188316311410299968e+05
1.272770000000000046e+01 8.443424990321820369e+05
1.276069999999999993e+01 8.730968793415997643e+05
1.279359999999999964e+01 9.028147985642115818e+05
1.282659999999999911e+01 9.304238181847323431e+05
1.285960000000000036e+01 9.538304590596387861e+05
1.289259999999999984e+01 9.728930774143531453e+05
1.292549999999999955e+01 9.885004890735025983e+05
1.295850000000000080e+01 1.002116576971255243e+06
1.299150000000000027e+01 1.015571833640436642e+06
1.302449999999999974e+01 1.030158081259384868e+06
1.305739999999999945e+01 1.045066523113143514e+06
1.309040000000000070e+01 1.057123193201851100e+06
1.312340000000000018e+01 1.064138931189914932e+06
