# energy(eV) alpha
0.000000000000000000e+00 0.000000000000000000e+00
1.285999999999999921e-01 2.743380617425486445e+00
2.571999999999999842e-01 1.072159246650352848e+01
3.857999999999999763e-01 2.504898169237111816e+01
5.143999999999999684e-01 4.434128722264960487e+01
6.430000000000000160e-01 6.845717545848123109e+01
7.715999999999999526e-01 1.007311476058243329e+02
9.002999999999999892e-01 1.374172756185484161e+02
1.028899999999999926e+00 1.816774518547693447e+02
1.157499999999999973e+00 2.319899105980234140e+02
1.286100000000000021e+00 2.895392549454911091e+02
1.414700000000000069e+00 3.559874760001538334e+02
1.543299999999999894e+00 4.305100173456444850e+02
1.671899999999999942e+00 5.133851813453711657e+02
1.800499999999999989e+00 6.065868032730581945e+02
1.929100000000000037e+00 7.107120502924052516e+02
2.057700000000000085e+00 8.282879025285411672e+02
2.186300000000000132e+00 9.581356075265532581e+02
2.314900000000000180e+00 1.102942584378089350e+03
2.443599999999999994e+00 1.265865269705062929e+03
2.572200000000000042e+00 1.447877412688629875e+03
2.700800000000000090e+00 1.652579640595030696e+03
2.829400000000000137e+00 1.883857093320963713e+03
2.958000000000000185e+00 2.143146712956594456e+03
3.086599999999999788e+00 2.443156537492454390e+03
3.215199999999999836e+00 2.780325312056509574e+03
3.343799999999999883e+00 3.171397011861115516e+03
3.472399999999999931e+00 3.634630977589318263e+03
3.600999999999999979e+00 4.176835765930693924e+03
3.729600000000000026e+00 4.824251067064891686e+03
3.858200000000000074e+00 5.614657772798638689e+03
3.986800000000000122e+00 6.601460581507746610e+03
4.115499999999999936e+00 7.864313926929790796e+03
4.244100000000000428e+00 9.562716844518934522e+03
4.372700000000000031e+00 1.196738853238383672e+04
4.501299999999999635e+00 1.571213671190190871e+04
4.629900000000000126e+00 2.254203508062167384e+04
4.758499999999999730e+00 3.864821872962237103e+04
4.887100000000000222e+00 7.967937972293108760e+04
5.015699999999999825e+00 1.381482475724683900e+05
5.144300000000000317e+00 1.743573484388130018e+05
5.272899999999999920e+00 1.999878919264456199e+05
5.401500000000000412e+00 2.324574003215054108e+05
5.530100000000000016e+00 2.417445528712138766e+05
5.658699999999999619e+00 2.297261366588468663e+05
5.787399999999999878e+00 2.553324194490483787e+05
5.916000000000000369e+00 3.154461201704958221e+05
6.044599999999999973e+00 3.940689276211187243e+05
6.173199999999999577e+00 4.537838212937694625e+05
6.301800000000000068e+00 4.803218646696268697e+05
6.430399999999999672e+00 5.261020941335378448e+05
6.559000000000000163e+00 5.461242581913953181e+05
6.687599999999999767e+00 5.309199139293245971e+05
6.816200000000000259e+00 4.782751421385202557e+05
6.944799999999999862e+00 4.503610668303521234e+05
7.073400000000000354e+00 4.513558313064547256e+05
7.201999999999999957e+00 4.320048102303842315e+05
7.330700000000000216e+00 4.402910556428239797e+05
7.459299999999999820e+00 5.193762229305228684e+05
7.587900000000000311e+00 5.973714219152890146e+05
7.716499999999999915e+00 6.141007594435113715e+05
7.845100000000000406e+00 6.634179701201200951e+05
7.973700000000000010e+00 7.601320021962595638e+05
8.102299999999999613e+00 6.711215895521620987e+05
8.230900000000000105e+00 5.538423370606397511e+05
8.359500000000000597e+00 6.008619841402213788e+05
8.488099999999999312e+00 6.746808451603980502e+05
8.616699999999999804e+00 6.916198434682769002e+05
8.745300000000000296e+00 7.568976078238406917e+05
8.873900000000000787e+00 8.321912931501695421e+05
9.002599999999999270e+00 7.863097038987561828e+05
9.131199999999999761e+00 7.766860448868467938e+05
9.259800000000000253e+00 7.787028198091564700e+05
9.388400000000000745e+00 7.785109863294858951e+05
9.516999999999999460e+00 7.150717866206165636e+05
9.645599999999999952e+00 6.776544840969349025e+05
9.774200000000000443e+00 7.101493877734642010e+05
9.902799999999999159e+00 7.486626044333276805e+05
1.003139999999999965e+01 7.750961902700215578e+05
1.016000000000000014e+01 8.049926804994120030e+05
1.028860000000000063e+01 8.432465143737703329e+05
1.041719999999999935e+01 8.691179575095182518e+05
1.054589999999999961e+01 8.789004155154585605e+05
1.067450000000000010e+01 9.127355754792686785e+05
1.080310000000000059e+01 9.575939198922932846e+05
1.093169999999999931e+01 9.638252335713729262e+05
1.106029999999999980e+01 9.539157933398793684e+05
1.118890000000000029e+01 9.725053801215070998e+05
1.131750000000000078e+01 1.016958273919279221e+06
1.144609999999999950e+01 1.062067598525528563e+06
1.157469999999999999e+01 1.070103105180897983e+06
1.170330000000000048e+01 1.091716459195088362e+06
1.183189999999999920e+01 1.105094831434043823e+06
1.196049999999999969e+01 1.109052708248287439e+06
1.208910000000000018e+01 1.163290977847540285e+06
1.221780000000000044e+01 1.213436201828750316e+06
1.234639999999999915e+01 1.249969725806044880e+06
1.247499999999999964e+01 1.233939174235625658e+06
1.260360000000000014e+01 1.222308402385709109e+06
1.273220000000000063e+01 1.209708851688042749e+06
1.286079999999999934e+01 1.177038730587912025e+06
1.298939999999999984e+01 1.171607271970197326e+06
1.311800000000000033e+01 1.200089429584634257e+06
1.324660000000000082e+01 1.178190365165512310e+06
1.337519999999999953e+01 1.112053729928360321e+06
1.350380000000000003e+01 1.121251662696231157e+06
1.363240000000000052e+01 1.143552080330040539e+06
1.376099999999999923e+01 1.186200311822717544e+06
1.388969999999999949e+01 1.173007490195294609e+06
1.401829999999999998e+01 1.117236964123231126e+06
1.414690000000000047e+01 1.085937211547510233e+06
1.427549999999999919e+01 1.090601415804594290e+06
1.440409999999999968e+01 1.070873590900809504e+06
1.453270000000000017e+01 1.052504812133240281e+06
1.466130000000000067e+01 1.036760547020285041e+06
1.478989999999999938e+01 1.004845388867698610e+06
1.491849999999999987e+01 9.825476268660487840e+05
1.504710000000000036e+01 1.165042809742603684e+06
1.517570000000000086e+01 1.245452819818190997e+06
1.530429999999999957e+01 1.221326847691428848e+06
1.543299999999999983e+01 1.142188284489703132e+06
1.556160000000000032e+01 1.077668579533398384e+06
1.569020000000000081e+01 1.074067708089072024e+06
1.581879999999999953e+01 1.074460071935539134e+06
1.594740000000000002e+01 1.070149650926552480e+06
1.607600000000000051e+01 1.100756054221299244e+06
1.620459999999999923e+01 1.110438846003624378e+06
1.633320000000000149e+01 1.139479554313827306e+06
1.646180000000000021e+01 1.135840196296995273e+06
1.659039999999999893e+01 1.130606451735327253e+06
1.671900000000000119e+01 1.126627423311677994e+06
1.684759999999999991e+01 1.163991148432608228e+06
1.697619999999999862e+01 1.189970812779770466e+06
1.710490000000000066e+01 1.215059125185032375e+06
1.723349999999999937e+01 1.221257433273151750e+06
1.736210000000000164e+01 1.225274645944036311e+06
1.749070000000000036e+01 1.214374921502904268e+06
1.761929999999999907e+01 1.199140450397898909e+06
1.774790000000000134e+01 1.207192986821357394e+06
1.787650000000000006e+01 1.199739330311100231e+06
1.800509999999999877e+01 1.231507512983244844e+06
1.813370000000000104e+01 1.265305148763312725e+06
1.826229999999999976e+01 1.266352224601804512e+06
1.839089999999999847e+01 1.257034938367518829e+06
1.851950000000000074e+01 1.245730714301409665e+06
1.864819999999999922e+01 1.237640760864122305e+06
1.877680000000000149e+01 1.221984451121461578e+06
1.890540000000000020e+01 1.191210771187071223e+06
1.903399999999999892e+01 1.186284189707081998e+06
1.916260000000000119e+01 1.174660570741446689e+06
1.929119999999999990e+01 1.139337404540513176e+06
1.941979999999999862e+01 1.071771869419305120e+06
1.954840000000000089e+01 1.005057524496629951e+06
1.967699999999999960e+01 1.005122127912319498e+06
1.980559999999999832e+01 9.863309233986812178e+05
1.993420000000000059e+01 9.590149455626836279e+05
2.006279999999999930e+01 9.547465935374611290e+05
2.019140000000000157e+01 9.471378443578720326e+05
2.032010000000000005e+01 9.227182690825662576e+05
2.044869999999999877e+01 9.007227898748365697e+05
2.057730000000000103e+01 8.701668007561042905e+05
2.070589999999999975e+01 8.501961296966824448e+05
2.083449999999999847e+01 8.551498274812496966e+05
2.096310000000000073e+01 8.658044442754201591e+05
2.109169999999999945e+01 8.630027793972940417e+05
2.122030000000000172e+01 8.442019960265902337e+05
2.134890000000000043e+01 8.301397411957423901e+05
2.147749999999999915e+01 8.089559882535297656e+05
2.160610000000000142e+01 8.053589204689338803e+05
2.173470000000000013e+01 7.735240155600161524e+05
2.186329999999999885e+01 7.363773462825571187e+05
2.199200000000000088e+01 7.270306407339314464e+05
2.212059999999999960e+01 6.994782505124633899e+05
2.224919999999999831e+01 6.888626969282953069e+05
2.237780000000000058e+01 6.675508227647725726e+05
2.250639999999999930e+01 6.369885488356334390e+05
2.263500000000000156e+01 6.325056620728783309e+05
2.276360000000000028e+01 6.173254627179470845e+05
2.289219999999999899e+01 5.966557089190678671e+05
2.302080000000000126e+01 5.807863016121167457e+05
2.314939999999999998e+01 5.518395397771252319e+05
2.327799999999999869e+01 5.583062452601091936e+05
2.340660000000000096e+01 5.500837759840089129e+05
2.353529999999999944e+01 5.267366553338414524e+05
2.366390000000000171e+01 5.241407269367427216e+05
2.379250000000000043e+01 5.016631252501666895e+05
2.392109999999999914e+01 4.794417635570889688e+05
2.404970000000000141e+01 4.632466522179314634e+05
2.417830000000000013e+01 4.466353673933218815e+05
2.430689999999999884e+01 4.377256824286759365e+05
2.443550000000000111e+01 4.272905340731886099e+05
2.456409999999999982e+01 4.008452618530982290e+05
2.469269999999999854e+01 3.831136228939069551e+05
2.482130000000000081e+01 3.961151093882588320e+05
2.494989999999999952e+01 4.261202089268096024e+05
2.507849999999999824e+01 4.504520578400415834e+05
2.520720000000000027e+01 4.725652299058109638e+05
2.533579999999999899e+01 5.829094844721214613e+05
2.546440000000000126e+01 7.878375894850121113e+05
2.559299999999999997e+01 9.381172786343512125e+05
2.572159999999999869e+01 9.887889373634697404e+05
2.585020000000000095e+01 1.272488635125756264e+06
2.597879999999999967e+01 1.618508243593077874e+06
2.610739999999999839e+01 1.741521150402071420e+06
2.623600000000000065e+01 2.011206254085633205e+06
2.636459999999999937e+01 1.896163270361170871e+06
2.649320000000000164e+01 1.919221585469706450e+06
2.662180000000000035e+01 2.244499936837283894e+06
2.675049999999999883e+01 1.875590090402193833e+06
2.687910000000000110e+01 1.243959385483619524e+06
2.700769999999999982e+01 1.017950216490439721e+06
2.713629999999999853e+01 1.167717491157640936e+06
2.726490000000000080e+01 1.200777578920439351e+06
2.739349999999999952e+01 1.227325067526678555e+06
2.752209999999999823e+01 9.966892556823672494e+05
2.765070000000000050e+01 7.715396010553403758e+05
2.777929999999999922e+01 7.621782748503036564e+05
2.790790000000000148e+01 8.509965878420664230e+05
2.803650000000000020e+01 8.567158326402432285e+05
2.816509999999999891e+01 8.231328240901516983e+05
2.829370000000000118e+01 7.528586839909709524e+05
2.842239999999999966e+01 7.331952180075434735e+05
2.855099999999999838e+01 6.580580224655406782e+05
2.867960000000000065e+01 6.108979044951127144e+05
2.880819999999999936e+01 5.775476405036244541e+05
2.893680000000000163e+01 5.416786744859087048e+05
2.906540000000000035e+01 5.015707535856195609e+05
2.919399999999999906e+01 4.624448908142588334e+05
2.932260000000000133e+01 4.478690314912867034e+05
2.945120000000000005e+01 4.537906619089760352e+05
2.957979999999999876e+01 4.501648415187354549e+05
2.970840000000000103e+01 4.232513235655921162e+05
2.983699999999999974e+01 4.209333103211949929e+05
2.996559999999999846e+01 4.087175185206541209e+05
3.009430000000000049e+01 3.997965530086239451e+05
3.022289999999999921e+01 3.993490953226585989e+05
3.035150000000000148e+01 3.911312106422818615e+05
3.048010000000000019e+01 3.993418106437351671e+05
3.060869999999999891e+01 3.935523357456200756e+05
3.073730000000000118e+01 3.786524847730390029e+05
3.086589999999999989e+01 3.667428273705705069e+05
3.099449999999999861e+01 3.511141318330483045e+05
3.112310000000000088e+01 3.474798858946442488e+05
3.125169999999999959e+01 3.427602930088377325e+05
3.138029999999999831e+01 3.388058036946897628e+05
3.150890000000000057e+01 3.371586402654483682e+05
3.163759999999999906e+01 3.276643868480061647e+05
3.176620000000000132e+01 3.140185238831334282e+05
3.189480000000000004e+01 3.030759785464326851e+05
3.202340000000000231e+01 2.881307207731843810e+05
3.215200000000000102e+01 2.814743011625460931e+05
3.228059999999999974e+01 2.747316852092964691e+05
3.240919999999999845e+01 2.741371459382553003e+05
3.253779999999999717e+01 2.683645911999000818e+05
3.266640000000000299e+01 2.652898231346370885e+05
3.279500000000000171e+01 2.576193797526273411e+05
3.292360000000000042e+01 2.498074966876304243e+05
3.305219999999999914e+01 2.523125439028847322e+05
3.318079999999999785e+01 2.414433457232699438e+05
3.330949999999999989e+01 2.417838434638669132e+05
3.343809999999999860e+01 2.438682814430734434e+05
3.356669999999999732e+01 2.352277057082456886e+05
3.369530000000000314e+01 2.260114051562662062e+05
3.382390000000000185e+01 2.247289968840862275e+05
3.395250000000000057e+01 2.233043213452628115e+05
3.408109999999999928e+01 2.180188263474002888e+05
3.420969999999999800e+01 2.096085046633030870e+05
3.433829999999999671e+01 1.999104656132266100e+05
3.446690000000000254e+01 2.016503848649511347e+05
3.459550000000000125e+01 1.941127293758102169e+05
3.472409999999999997e+01 1.917275298740523867e+05
3.485280000000000200e+01 1.930825616314798535e+05
3.498140000000000072e+01 1.937827787155317492e+05
3.510999999999999943e+01 1.936558910779240832e+05
3.523859999999999815e+01 1.873911929722393979e+05
3.536719999999999686e+01 1.845605070196029847e+05
3.549580000000000268e+01 1.812942767081646307e+05
3.562440000000000140e+01 1.804611877056110534e+05
3.575300000000000011e+01 1.808648822973642964e+05
3.588159999999999883e+01 1.825920937144334312e+05
3.601019999999999754e+01 1.823966974333120452e+05
3.613880000000000337e+01 1.762802404517114046e+05
3.626740000000000208e+01 1.732167304310220643e+05
3.639600000000000080e+01 1.688139094683452568e+05
3.652470000000000283e+01 1.706627105451512034e+05
3.665330000000000155e+01 1.721940736844430212e+05
3.678190000000000026e+01 1.660141094402208109e+05
3.691049999999999898e+01 1.600930994034230534e+05
3.703909999999999769e+01 1.592766888896382588e+05
3.716770000000000351e+01 1.577752765506278374e+05
3.729630000000000223e+01 1.548523861734799284e+05
3.742490000000000094e+01 1.555411315561028605e+05
3.755349999999999966e+01 1.529170675232246867e+05
3.768209999999999837e+01 1.518769879858253116e+05
3.781069999999999709e+01 1.504722395752822922e+05
3.793930000000000291e+01 1.506913000531061261e+05
3.806790000000000163e+01 1.480124055609175412e+05
3.819659999999999656e+01 1.441828395111008431e+05
3.832520000000000238e+01 1.462012216368906957e+05
3.845380000000000109e+01 1.492778175877449976e+05
3.858239999999999981e+01 1.477728934935165162e+05
3.871099999999999852e+01 1.475281095685123000e+05
3.883959999999999724e+01 1.440806870608126337e+05
3.896820000000000306e+01 1.418502852588470851e+05
3.909680000000000177e+01 1.388903936499910778e+05
3.922540000000000049e+01 1.381103392984856328e+05
3.935399999999999920e+01 1.380748072086317989e+05
3.948259999999999792e+01 1.374747779945701186e+05
3.961119999999999663e+01 1.351691578183143865e+05
3.973989999999999867e+01 1.322698179140699795e+05
3.986849999999999739e+01 1.296609468043317756e+05
3.999710000000000321e+01 1.319244878711303172e+05
4.012570000000000192e+01 1.297654930479909672e+05
4.025430000000000064e+01 1.273655682945462468e+05
4.038289999999999935e+01 1.253571944633630192e+05
4.051149999999999807e+01 1.280930241752474394e+05
4.064009999999999678e+01 1.266917189435958862e+05
4.076870000000000260e+01 1.252000602483480179e+05
4.089730000000000132e+01 1.266761257935928006e+05
4.102590000000000003e+01 1.234628322895805613e+05
4.115449999999999875e+01 1.197063085028636997e+05
4.128309999999999746e+01 1.204172578446289990e+05
4.141179999999999950e+01 1.225137122185040644e+05
4.154039999999999822e+01 1.212479565553180437e+05
4.166899999999999693e+01 1.182203983473092812e+05
4.179760000000000275e+01 1.179203217705463903e+05
4.192620000000000147e+01 1.197650391015497153e+05
4.205480000000000018e+01 1.197281341625267378e+05
4.218339999999999890e+01 1.200205285467991198e+05
4.231199999999999761e+01 1.189549913985196763e+05
4.244060000000000343e+01 1.168747792909490527e+05
4.256920000000000215e+01 1.167969737346360344e+05
4.269780000000000086e+01 1.161038021456652205e+05
4.282639999999999958e+01 1.146652355991053482e+05
4.295510000000000161e+01 1.132834815537727845e+05
4.308370000000000033e+01 1.127308308525074826e+05
4.321229999999999905e+01 1.103547331700237410e+05
4.334089999999999776e+01 1.104337553316529229e+05
4.346949999999999648e+01 1.072985453576001746e+05
4.359810000000000230e+01 1.076774408062898437e+05
4.372670000000000101e+01 1.054387234506473615e+05
4.385529999999999973e+01 1.048022385203043668e+05
4.398389999999999844e+01 1.049527699092409457e+05
4.411249999999999716e+01 1.026860721850528644e+05
4.424110000000000298e+01 1.019375641755560646e+05
4.436970000000000169e+01 1.038918211503324419e+05
4.449830000000000041e+01 1.040644747542229161e+05
4.462700000000000244e+01 1.037262067904059513e+05
4.475560000000000116e+01 1.028920784881113505e+05
4.488419999999999987e+01 1.000856504012481455e+05
4.501279999999999859e+01 9.967207729424719582e+04
4.514139999999999731e+01 1.010749952501344233e+05
4.527000000000000313e+01 1.006653361758056271e+05
4.539860000000000184e+01 9.767490662713306665e+04
4.552720000000000056e+01 9.685391298916560481e+04
4.565579999999999927e+01 9.518268158818024676e+04
4.578439999999999799e+01 9.425807407702181081e+04
4.591299999999999670e+01 9.403388179173861863e+04
4.604160000000000252e+01 9.268593676625106309e+04
4.617020000000000124e+01 9.243842342248387286e+04
4.629890000000000327e+01 9.239109769582485023e+04
4.642750000000000199e+01 9.087025745973493031e+04
4.655610000000000070e+01 8.949463115840323735e+04
4.668469999999999942e+01 8.896788799039043079e+04
4.681329999999999814e+01 8.976304988883473561e+04
4.694189999999999685e+01 8.910194781376569881e+04
4.707050000000000267e+01 8.745487562793389952e+04
4.719910000000000139e+01 8.717826908134965925e+04
4.732770000000000010e+01 8.833299288245441858e+04
4.745629999999999882e+01 8.757979821998838452e+04
4.758489999999999753e+01 8.600644552202426712e+04
4.771350000000000335e+01 8.548770063355579623e+04
4.784219999999999828e+01 8.336009244426395162e+04
4.797079999999999700e+01 8.342101600619411329e+04
4.809940000000000282e+01 8.376047674554304103e+04
4.822800000000000153e+01 8.474199542381125502e+04
4.835660000000000025e+01 8.449601978398769279e+04
4.848519999999999897e+01 8.307489667654846562e+04
4.861379999999999768e+01 8.215863227783812908e+04
4.874240000000000350e+01 8.331887714023223089e+04
4.887100000000000222e+01 8.197819898769431165e+04
4.899960000000000093e+01 8.168759961739857681e+04
4.912819999999999965e+01 8.167343410022099852e+04
4.925679999999999836e+01 8.211310151994694024e+04
4.938539999999999708e+01 8.321327557600197906e+04
4.951409999999999911e+01 8.131244397825992201e+04
4.964269999999999783e+01 8.147889618793208501e+04
4.977129999999999654e+01 8.073898800766393833e+04
4.989990000000000236e+01 8.182892584871385770e+04
5.002850000000000108e+01 8.092556902774616901e+04
5.015709999999999980e+01 7.991580332046121475e+04
5.028569999999999851e+01 7.825090341775135312e+04
5.041429999999999723e+01 7.674416737212239241e+04
5.054290000000000305e+01 7.681165055460607982e+04
5.067150000000000176e+01 7.465449358267063508e+04
5.080010000000000048e+01 7.413722105674797785e+04
5.092869999999999919e+01 7.408300803046612418e+04
5.105740000000000123e+01 7.590384810651918815e+04
5.118599999999999994e+01 7.645313434460322605e+04
