# energy(eV) alpha
0.000000000000000000e+00 0.000000000000000000e+00
3.810000000000000192e-02 1.610037057058754328e+01
7.610000000000000098e-02 6.512510489545699954e+01
1.141999999999999960e-01 1.498331010690817493e+02
1.522999999999999909e-01 2.748690187649571044e+02
1.902999999999999969e-01 4.476293633930184797e+02
2.283999999999999919e-01 6.800809131222229098e+02
2.665000000000000147e-01 9.894004892204204680e+02
3.045999999999999819e-01 1.402069917604101420e+03
3.426000000000000156e-01 1.960322852856973213e+03
3.806999999999999829e-01 2.733467610648394384e+03
4.188000000000000056e-01 3.835401650473182599e+03
4.567999999999999838e-01 5.462691939480281690e+03
4.949000000000000066e-01 7.953720961160060142e+03
5.330000000000000293e-01 1.181557488224871486e+04
5.709999999999999520e-01 1.744590347814154302e+04
6.090999999999999748e-01 2.414749636285730230e+04
6.471999999999999975e-01 3.005923432330069409e+04
6.852000000000000313e-01 3.371905689528756920e+04
7.233000000000000540e-01 3.345468426726660255e+04
7.613999999999999657e-01 2.925506792014797611e+04
7.993999999999999995e-01 2.417865202011411020e+04
8.375000000000000222e-01 2.067934105645968521e+04
8.756000000000000449e-01 1.917858456217041021e+04
9.136999999999999567e-01 1.950216074954334181e+04
9.516999999999999904e-01 2.166937678874867197e+04
9.898000000000000131e-01 2.611852950520375089e+04
1.027900000000000036e+00 3.374810519808077515e+04
1.065900000000000070e+00 4.549690201219841401e+04
1.104000000000000092e+00 6.068829325261552003e+04
1.142099999999999893e+00 7.592663348094323010e+04
1.180099999999999927e+00 8.656213407226998243e+04
1.218199999999999950e+00 8.745230849777629192e+04
1.256299999999999972e+00 7.745630063512276683e+04
1.294300000000000006e+00 6.389809276439491805e+04
1.332400000000000029e+00 5.416987236568757362e+04
1.370500000000000052e+00 5.010822412051431456e+04
1.408500000000000085e+00 5.150860823269443790e+04
1.446600000000000108e+00 5.862426385519983160e+04
1.484699999999999909e+00 7.234737465874211921e+04
1.522799999999999931e+00 9.270901638602657476e+04
1.560799999999999965e+00 1.154429195619106467e+05
1.598899999999999988e+00 1.319074214144190482e+05
1.637000000000000011e+00 1.357848035417117644e+05
1.675000000000000044e+00 1.267984042938088241e+05
1.713100000000000067e+00 1.126157406614797947e+05
1.751200000000000090e+00 1.021693246709731029e+05
1.789199999999999902e+00 9.798479008487223473e+04
1.827299999999999924e+00 9.954910723934043199e+04
1.865399999999999947e+00 1.066126265225651587e+05
1.903399999999999981e+00 1.191569923735392222e+05
1.941500000000000004e+00 1.384211494742816431e+05
1.979600000000000026e+00 1.640885574560570822e+05
2.017700000000000049e+00 1.915307737192995264e+05
2.055699999999999861e+00 2.141273134080582531e+05
2.093799999999999883e+00 2.262787039366260287e+05
2.131899999999999906e+00 2.262278781491257250e+05
2.169900000000000162e+00 2.177734675726159767e+05
2.208000000000000185e+00 2.082508859034279303e+05
2.246100000000000207e+00 2.043880628888757201e+05
2.284100000000000019e+00 2.057431049518731597e+05
2.322200000000000042e+00 2.082796002890576201e+05
2.360300000000000065e+00 2.099480592554316390e+05
2.398299999999999876e+00 2.176927999628378020e+05
2.436399999999999899e+00 2.350684573027133010e+05
2.474499999999999922e+00 2.561155142180688272e+05
2.512500000000000178e+00 2.765427985485092504e+05
2.550600000000000200e+00 2.896733991838912480e+05
2.588699999999999779e+00 2.886280411986833788e+05
2.626799999999999802e+00 2.756333658421899308e+05
2.664800000000000058e+00 2.555294524778950436e+05
2.702900000000000080e+00 2.352504795250680472e+05
2.741000000000000103e+00 2.233562403065893450e+05
2.778999999999999915e+00 2.199848402951367607e+05
2.817099999999999937e+00 2.191343348796664504e+05
2.855199999999999960e+00 2.231987608912255091e+05
2.893200000000000216e+00 2.343512851788503176e+05
2.931299999999999795e+00 2.469562497172251751e+05
2.969399999999999817e+00 2.613443629974226060e+05
3.007400000000000073e+00 2.804463954897455405e+05
3.045500000000000096e+00 2.996604905558771570e+05
3.083600000000000119e+00 3.160531478460007347e+05
3.121700000000000141e+00 3.309990696806479828e+05
3.159699999999999953e+00 3.413478146551572718e+05
3.197799999999999976e+00 3.450927187693777960e+05
3.235899999999999999e+00 3.422769827494050260e+05
3.273899999999999810e+00 3.333778483111200039e+05
3.311999999999999833e+00 3.244474349554139771e+05
3.350099999999999856e+00 3.230498078154181130e+05
3.388100000000000112e+00 3.310997778045966406e+05
3.426200000000000134e+00 3.448386243228660896e+05
3.464300000000000157e+00 3.587299357251948677e+05
3.502299999999999969e+00 3.724070103486015578e+05
3.540399999999999991e+00 3.844979216812998638e+05
3.578500000000000014e+00 3.888578168248218135e+05
3.616499999999999826e+00 3.830924570732802968e+05
3.654599999999999849e+00 3.692826358503779047e+05
3.692699999999999871e+00 3.471503067650520243e+05
3.730799999999999894e+00 3.207127769364101114e+05
3.768800000000000150e+00 2.979455021463519661e+05
3.806900000000000173e+00 2.843349222597770859e+05
3.845000000000000195e+00 2.821733070567265386e+05
3.883000000000000007e+00 2.916255709917097702e+05
3.921100000000000030e+00 3.134166743588070967e+05
3.959200000000000053e+00 3.400944646336512524e+05
3.997199999999999864e+00 3.565954501809651847e+05
4.035300000000000331e+00 3.614752166012208909e+05
4.073400000000000354e+00 3.577813762420243584e+05
4.111399999999999721e+00 3.477154535686166491e+05
4.149499999999999744e+00 3.381655864142361097e+05
4.187599999999999767e+00 3.364970569841134129e+05
4.225600000000000023e+00 3.470081720244971802e+05
4.263700000000000045e+00 3.692170473693715758e+05
4.301800000000000068e+00 3.983936741658980027e+05
4.339900000000000091e+00 4.287061697670178837e+05
4.377900000000000347e+00 4.560502697645258158e+05
4.416000000000000369e+00 4.772160214951512753e+05
4.454100000000000392e+00 4.900602392112071393e+05
4.492099999999999760e+00 4.944489197293123580e+05
4.530199999999999783e+00 4.918941725410413928e+05
4.568299999999999805e+00 4.843056566773316008e+05
4.606300000000000061e+00 4.696125222446028492e+05
4.644400000000000084e+00 4.473950135714528733e+05
4.682500000000000107e+00 4.213267871202559909e+05
4.720500000000000362e+00 3.953232309888299787e+05
4.758600000000000385e+00 3.720569038171485299e+05
4.796700000000000408e+00 3.531589345607111463e+05
4.834800000000000431e+00 3.396534283810182242e+05
4.872799999999999798e+00 3.324523449631793192e+05
4.910899999999999821e+00 3.352185739464758663e+05
4.948999999999999844e+00 3.506849444074063795e+05
4.987000000000000099e+00 3.756216270015712944e+05
5.025100000000000122e+00 4.027224240829496412e+05
5.063200000000000145e+00 4.254504181219263701e+05
5.101200000000000401e+00 4.398482770259852405e+05
5.139300000000000423e+00 4.462750630038372474e+05
5.177399999999999558e+00 4.492459066626005806e+05
5.215399999999999814e+00 4.527522167795388377e+05
5.253499999999999837e+00 4.580712233726010891e+05
5.291599999999999859e+00 4.648082221689095022e+05
5.329600000000000115e+00 4.708309436625443050e+05
5.367700000000000138e+00 4.749474621129620937e+05
5.405800000000000161e+00 4.783686181691387319e+05
5.443900000000000183e+00 4.828368718367460533e+05
5.481900000000000439e+00 4.893548676667019026e+05
5.519999999999999574e+00 4.981816676821903675e+05
5.558099999999999596e+00 5.073980422926461324e+05
5.596099999999999852e+00 5.136851616149694892e+05
5.634199999999999875e+00 5.143934850027205539e+05
5.672299999999999898e+00 5.085393300428193761e+05
5.710300000000000153e+00 4.983883942507981556e+05
5.748400000000000176e+00 4.866872161950614536e+05
5.786500000000000199e+00 4.737016099901152193e+05
5.824499999999999567e+00 4.598570465506601031e+05
5.862599999999999589e+00 4.470750267135204631e+05
5.900699999999999612e+00 4.366602015039361431e+05
5.938699999999999868e+00 4.274063857690967852e+05
5.976799999999999891e+00 4.176644987192822155e+05
6.014899999999999913e+00 4.083486608682209626e+05
6.052999999999999936e+00 4.016447530598496087e+05
6.091000000000000192e+00 3.981718740189730888e+05
6.129100000000000215e+00 3.967079969415121595e+05
6.167200000000000237e+00 3.950204014879764873e+05
6.205199999999999605e+00 3.918101901834079763e+05
6.243299999999999628e+00 3.872103032926036976e+05
6.281399999999999650e+00 3.816068292555236840e+05
6.319399999999999906e+00 3.752273646883482579e+05
6.357499999999999929e+00 3.689009947667085216e+05
6.395599999999999952e+00 3.630015870510742534e+05
6.433600000000000207e+00 3.575826951199711766e+05
6.471700000000000230e+00 3.541091895719518070e+05
6.509800000000000253e+00 3.537429036044992972e+05
6.547900000000000276e+00 3.562103380717585678e+05
6.585899999999999643e+00 3.611542464214553474e+05
6.623999999999999666e+00 3.677119318324190681e+05
6.662099999999999689e+00 3.742664454084397294e+05
6.700099999999999945e+00 3.804906236640351708e+05
6.738199999999999967e+00 3.870244394207590958e+05
6.776299999999999990e+00 3.946620081077434006e+05
6.814300000000000246e+00 4.036463390046485583e+05
6.852400000000000269e+00 4.147628309170103166e+05
6.890500000000000291e+00 4.294527236256799661e+05
6.928499999999999659e+00 4.478196163153793896e+05
6.966599999999999682e+00 4.671241865183681948e+05
7.004699999999999704e+00 4.835157036206485354e+05
7.042699999999999960e+00 4.954635027390264440e+05
7.080799999999999983e+00 5.041659134772709804e+05
7.118900000000000006e+00 5.128021410339339636e+05
7.157000000000000028e+00 5.247390824380383128e+05
7.195000000000000284e+00 5.409897411301536486e+05
7.233100000000000307e+00 5.621106564851100557e+05
7.271200000000000330e+00 5.873785330628231168e+05
7.309199999999999697e+00 6.149610896234973334e+05
7.347299999999999720e+00 6.429717930803704076e+05
7.385399999999999743e+00 6.690465306080436567e+05
7.423399999999999999e+00 6.917620374082589988e+05
7.461500000000000021e+00 7.117231569507182576e+05
7.499600000000000044e+00 7.304533863810221665e+05
7.537600000000000300e+00 7.490992059629351133e+05
7.575700000000000323e+00 7.676500299786311807e+05
7.613800000000000345e+00 7.841532011829622788e+05
7.651900000000000368e+00 7.976683564287031768e+05
7.689899999999999736e+00 8.096482232760174666e+05
7.727999999999999758e+00 8.201104558320057113e+05
7.766099999999999781e+00 8.270292302121137036e+05
7.804100000000000037e+00 8.290392488199478248e+05
7.842200000000000060e+00 8.275016179763517575e+05
7.880300000000000082e+00 8.241420763279173989e+05
7.918300000000000338e+00 8.192919881499814801e+05
7.956400000000000361e+00 8.132685364489074564e+05
7.994500000000000384e+00 8.066184311792483786e+05
8.032500000000000639e+00 8.001810279626429547e+05
8.070600000000000662e+00 7.932505433900718344e+05
8.108700000000000685e+00 7.834087707650486846e+05
8.146699999999999164e+00 7.709522401237660088e+05
8.184799999999999187e+00 7.591428316610411275e+05
8.222899999999999210e+00 7.502351192664328264e+05
8.260999999999999233e+00 7.437538269914481789e+05
8.298999999999999488e+00 7.384006049194036750e+05
8.337099999999999511e+00 7.335765035130310571e+05
8.375199999999999534e+00 7.289036867840195773e+05
8.413199999999999790e+00 7.258781436333238380e+05
8.451299999999999812e+00 7.269884848268235801e+05
8.489399999999999835e+00 7.327071349450219423e+05
8.527400000000000091e+00 7.413333330710403388e+05
8.565500000000000114e+00 7.508003598855768796e+05
8.603600000000000136e+00 7.606520620137647493e+05
8.641600000000000392e+00 7.710524704883465311e+05
8.679700000000000415e+00 7.801737779929417884e+05
8.717800000000000438e+00 7.866606450060658390e+05
8.755800000000000693e+00 7.918545458438667702e+05
8.793900000000000716e+00 7.981065748371391091e+05
8.832000000000000739e+00 8.067451231693574227e+05
8.870100000000000762e+00 8.171932015492565697e+05
8.908099999999999241e+00 8.270929242516591912e+05
8.946199999999999264e+00 8.338031524430090794e+05
8.984299999999999287e+00 8.362053532560174353e+05
9.022299999999999542e+00 8.339124267291162396e+05
9.060399999999999565e+00 8.269980492513187928e+05
9.098499999999999588e+00 8.174193593677703757e+05
9.136499999999999844e+00 8.070886043599346885e+05
9.174599999999999866e+00 7.978898269151593558e+05
9.212699999999999889e+00 7.930099462489091093e+05
9.250700000000000145e+00 7.945288533092529979e+05
9.288800000000000168e+00 8.011539621166639263e+05
9.326900000000000190e+00 8.084716142280380009e+05
9.365000000000000213e+00 8.122165886772001395e+05
9.403000000000000469e+00 8.114331595336124301e+05
9.441100000000000492e+00 8.078507625426587183e+05
9.479200000000000514e+00 8.021702368607606040e+05
9.517200000000000770e+00 7.956541890057943529e+05
9.555300000000000793e+00 7.898204244787661592e+05
9.593400000000000816e+00 7.834106230211516377e+05
9.631399999999999295e+00 7.758031745565462625e+05
9.669499999999999318e+00 7.701817082300974289e+05
9.707599999999999341e+00 7.701814037249846151e+05
9.745599999999999596e+00 7.759467579891950591e+05
9.783699999999999619e+00 7.843159243648115080e+05
9.821799999999999642e+00 7.929533323368960992e+05
9.859799999999999898e+00 8.023004221398022491e+05
9.897899999999999920e+00 8.131353227523110108e+05
9.935999999999999943e+00 8.254573888900490711e+05
9.974099999999999966e+00 8.379691069653127342e+05
1.001210000000000022e+01 8.503722756760203047e+05
1.005020000000000024e+01 8.631025336211913964e+05
1.008830000000000027e+01 8.771057898162984056e+05
1.012630000000000052e+01 8.955454377634485718e+05
1.016440000000000055e+01 9.210399874656884931e+05
1.020250000000000057e+01 9.514061281892736442e+05
1.024050000000000082e+01 9.810969361248183995e+05
1.027860000000000085e+01 1.007495344902586890e+06
1.031670000000000087e+01 1.029842799429306295e+06
1.035469999999999935e+01 1.047363222157425480e+06
1.039279999999999937e+01 1.061216393024076009e+06
1.043089999999999939e+01 1.074156693728800863e+06
1.046899999999999942e+01 1.085981761904163752e+06
1.050699999999999967e+01 1.092844007175955223e+06
1.054509999999999970e+01 1.092348321378972847e+06
1.058319999999999972e+01 1.086734155193010345e+06
1.062119999999999997e+01 1.079137218723620987e+06
1.065930000000000000e+01 1.071493897534494055e+06
1.069740000000000002e+01 1.065422750116729876e+06
1.073540000000000028e+01 1.061314354338448728e+06
1.077350000000000030e+01 1.059025540790525265e+06
1.081160000000000032e+01 1.058708985963331303e+06
1.084960000000000058e+01 1.058484156488633482e+06
1.088770000000000060e+01 1.055796447178252041e+06
1.092580000000000062e+01 1.051077242183938157e+06
1.096380000000000088e+01 1.047277357226643828e+06
1.100189999999999912e+01 1.045612044849879225e+06
1.103999999999999915e+01 1.044217682851562044e+06
1.107809999999999917e+01 1.041215872268255334e+06
1.111609999999999943e+01 1.037952229187493562e+06
1.115419999999999945e+01 1.038494319935330772e+06
1.119229999999999947e+01 1.043791792999108555e+06
1.123029999999999973e+01 1.049921689555896213e+06
1.126839999999999975e+01 1.051937584400960943e+06
1.130649999999999977e+01 1.047881891924568801e+06
1.134450000000000003e+01 1.039161676264363341e+06
1.138260000000000005e+01 1.028656376530737500e+06
1.142070000000000007e+01 1.019248430703218910e+06
1.145870000000000033e+01 1.011773495732392999e+06
1.149680000000000035e+01 1.005736818854492041e+06
1.153490000000000038e+01 1.000239136952855624e+06
1.157290000000000063e+01 9.941091207273111213e+05
1.161100000000000065e+01 9.864941779772200389e+05
1.164910000000000068e+01 9.779655245390643831e+05
1.168720000000000070e+01 9.700080740084219724e+05
1.172519999999999918e+01 9.638907830190563109e+05
1.176329999999999920e+01 9.595122295324774459e+05
1.180139999999999922e+01 9.551720241058749380e+05
1.183939999999999948e+01 9.501656294767059153e+05
1.187749999999999950e+01 9.447103079837043770e+05
1.191559999999999953e+01 9.382249186180847464e+05
1.195359999999999978e+01 9.314385952313033631e+05
1.199169999999999980e+01 9.259859210217173677e+05
1.202979999999999983e+01 9.222116950211006915e+05
1.206780000000000008e+01 9.193823991031938931e+05
1.210590000000000011e+01 9.162592235601302236e+05
1.214400000000000013e+01 9.123708809380097082e+05
1.218210000000000015e+01 9.075118587340457598e+05
1.222010000000000041e+01 9.022808577695689164e+05
1.225820000000000043e+01 8.976822652307907119e+05
1.229630000000000045e+01 8.941632152204955928e+05
1.233430000000000071e+01 8.915389104814883322e+05
1.237240000000000073e+01 8.882823916106967954e+05
1.241050000000000075e+01 8.822230968779961113e+05
1.244849999999999923e+01 8.710793102657673880e+05
1.248659999999999926e+01 8.534056775818436872e+05
1.252469999999999928e+01 8.307699330771490932e+05
1.256269999999999953e+01 8.076015592377866851e+05
1.260079999999999956e+01 7.875355806576376781e+05
1.263889999999999958e+01 7.718557192420224892e+05
1.267689999999999984e+01 7.599978963244458428e+05
1.271499999999999986e+01 7.500244105969552184e+05
1.275309999999999988e+01 7.403339556337350514e+05
1.279119999999999990e+01 7.311618830341256689e+05
1.282920000000000016e+01 7.231611707966510439e+05
1.286730000000000018e+01 7.155244744932575850e+05
1.290540000000000020e+01 7.071095661915701348e+05
1.294340000000000046e+01 6.976659265148891136e+05
1.298150000000000048e+01 6.870430522115940694e+05
1.301960000000000051e+01 6.752846571304842364e+05
1.305760000000000076e+01 6.622070334059478482e+05
1.309570000000000078e+01 6.478548729347863700e+05
1.313380000000000081e+01 6.335143073985029478e+05
1.317179999999999929e+01 6.208367441213189159e+05
1.320989999999999931e+01 6.115682294790666783e+05
1.324799999999999933e+01 6.068548568254718557e+05
1.328599999999999959e+01 6.058215847690079827e+05
1.332409999999999961e+01 6.082707678904565983e+05
1.336219999999999963e+01 6.149182103005383397e+05
1.340029999999999966e+01 6.256474942628521239e+05
1.343829999999999991e+01 6.387519723419334041e+05
1.347639999999999993e+01 6.525840280033397721e+05
1.351449999999999996e+01 6.668296787446633680e+05
1.355250000000000021e+01 6.818934102268697461e+05
1.359060000000000024e+01 6.968862463588098763e+05
1.362870000000000026e+01 7.100212632927283412e+05
1.366670000000000051e+01 7.216090136122757103e+05
1.370480000000000054e+01 7.325201916113767074e+05
1.374290000000000056e+01 7.425934803985669278e+05
1.378090000000000082e+01 7.505842847285137977e+05
1.381900000000000084e+01 7.546280102607945446e+05
1.385710000000000086e+01 7.547598365346809151e+05
1.389520000000000088e+01 7.543167049050036585e+05
1.393319999999999936e+01 7.560216303916574689e+05
1.397129999999999939e+01 7.589482311921770452e+05
1.400939999999999941e+01 7.624881941177082481e+05
1.404739999999999966e+01 7.688859184296843596e+05
1.408549999999999969e+01 7.788420015612152638e+05
1.412359999999999971e+01 7.896667097690389492e+05
1.416159999999999997e+01 7.994693761915451614e+05
1.419969999999999999e+01 8.078641746085640043e+05
1.423780000000000001e+01 8.135816351522766054e+05
1.427580000000000027e+01 8.169493876594819594e+05
1.431390000000000029e+01 8.203059136586819077e+05
1.435200000000000031e+01 8.245876161925370106e+05
1.439000000000000057e+01 8.295857193577575963e+05
1.442810000000000059e+01 8.349742735872205812e+05
1.446620000000000061e+01 8.394150903128838399e+05
1.450430000000000064e+01 8.414175731881562388e+05
1.454229999999999912e+01 8.400615370342989918e+05
1.458039999999999914e+01 8.354799844686872093e+05
1.461849999999999916e+01 8.300923207646164810e+05
1.465649999999999942e+01 8.259505050284103490e+05
1.469459999999999944e+01 8.209455792703722836e+05
1.473269999999999946e+01 8.111855484406582545e+05
1.477069999999999972e+01 7.955270837736777030e+05
1.480879999999999974e+01 7.764308124696846353e+05
1.484689999999999976e+01 7.578573223821389256e+05
1.488490000000000002e+01 7.431976875979003962e+05
1.492300000000000004e+01 7.352900135546710808e+05
1.496110000000000007e+01 7.342495697146262974e+05
1.499920000000000009e+01 7.361307262246804312e+05
1.503720000000000034e+01 7.360160229796809144e+05
1.507530000000000037e+01 7.300197474371957360e+05
1.511340000000000039e+01 7.176548871075171046e+05
1.515140000000000065e+01 7.034943310730442172e+05
