# energy(eV) alpha
0.000000000000000000e+00 0.000000000000000000e+00
4.220000000000000140e-02 5.688952568542535726e-01
8.429999999999999993e-02 2.197028717835582956e+00
1.265000000000000013e-01 5.001757479478388113e+00
1.686999999999999889e-01 8.943417468601104758e+00
2.109000000000000041e-01 1.364231716383162585e+01
2.530000000000000027e-01 1.977203059586599920e+01
2.952000000000000179e-01 2.704245747536499422e+01
3.373999999999999777e-01 3.514298015311796775e+01
3.795000000000000040e-01 4.462828659024296485e+01
4.217000000000000193e-01 5.525416861683665815e+01
4.638999999999999790e-01 6.700822385393249192e+01
5.060000000000000053e-01 7.987228371560185280e+01
5.482000000000000206e-01 9.436567626501232553e+01
5.904000000000000359e-01 1.095259994768625944e+02
6.326000000000000512e-01 1.258054295289713451e+02
6.746999999999999664e-01 1.437829851559154122e+02
7.168999999999999817e-01 1.629681433712815135e+02
7.590999999999999970e-01 1.833368477081354797e+02
8.012000000000000233e-01 2.048597300842623099e+02
8.434000000000000385e-01 2.283350167449115418e+02
8.856000000000000538e-01 2.522664031932614250e+02
9.276999999999999691e-01 2.781627468471277211e+02
9.698999999999999844e-01 3.053240674142532498e+02
1.012100000000000000e+00 3.337167886793761795e+02
1.054300000000000015e+00 3.642710800456720790e+02
1.096400000000000041e+00 3.970603107418146465e+02
1.138600000000000056e+00 4.312455040430885447e+02
1.180800000000000072e+00 4.646812835224955620e+02
1.222900000000000098e+00 5.025334507233330328e+02
1.265099999999999891e+00 5.407164389860997744e+02
1.307299999999999907e+00 5.813853592528694207e+02
1.349399999999999933e+00 6.233997901421605548e+02
1.391599999999999948e+00 6.680746620582356172e+02
1.433799999999999963e+00 7.141983053034023214e+02
1.475999999999999979e+00 7.604522580482617968e+02
1.518100000000000005e+00 8.120200235765246362e+02
1.560300000000000020e+00 8.665696671697244255e+02
1.602500000000000036e+00 9.213184967563544205e+02
1.644600000000000062e+00 9.775402410414999395e+02
1.686800000000000077e+00 1.036818658862474194e+03
1.729000000000000092e+00 1.100687939967023112e+03
1.771099999999999897e+00 1.166183013329633241e+03
1.813299999999999912e+00 1.235011589718375717e+03
1.855499999999999927e+00 1.303939961075567226e+03
1.897699999999999942e+00 1.379460499535505505e+03
1.939799999999999969e+00 1.456728479921966255e+03
1.981999999999999984e+00 1.539311460338361258e+03
2.024199999999999999e+00 1.623804253543593632e+03
2.066300000000000026e+00 1.713675015554726542e+03
2.108499999999999819e+00 1.805614786103534016e+03
2.150700000000000056e+00 1.901362241305576617e+03
2.192800000000000082e+00 2.004668545109922889e+03
2.234999999999999876e+00 2.110231436569618381e+03
2.277200000000000113e+00 2.221795835327969598e+03
2.319399999999999906e+00 2.339558240921683591e+03
2.361499999999999932e+00 2.461506350851493153e+03
2.403700000000000170e+00 2.587909625995356237e+03
2.445899999999999963e+00 2.722862307290564786e+03
2.487999999999999989e+00 2.864375863203983045e+03
2.530199999999999783e+00 3.014926544957097576e+03
2.572400000000000020e+00 3.172441541831548875e+03
2.614500000000000046e+00 3.336915603643159557e+03
2.656699999999999839e+00 3.513144035405957766e+03
2.698900000000000077e+00 3.692260943238563868e+03
2.741099999999999870e+00 3.887846832509721480e+03
2.783199999999999896e+00 4.093278392894134413e+03
2.825400000000000134e+00 4.313629340589227468e+03
2.867599999999999927e+00 4.544320477012158335e+03
2.909699999999999953e+00 4.790101995889738646e+03
2.951900000000000190e+00 5.051487702799186081e+03
2.994099999999999984e+00 5.331072365127503872e+03
3.036200000000000010e+00 5.626396561498207120e+03
3.078399999999999803e+00 5.950538601981585089e+03
3.120600000000000041e+00 6.291154642744298144e+03
3.162799999999999834e+00 6.656025511105284750e+03
3.204899999999999860e+00 7.057949990472058744e+03
3.247100000000000097e+00 7.487540542441335674e+03
3.289299999999999891e+00 7.952654909884188783e+03
3.331399999999999917e+00 8.466483988367759594e+03
3.373600000000000154e+00 9.024634153791046629e+03
3.415799999999999947e+00 9.637804611406143522e+03
3.457899999999999974e+00 1.031674481861711138e+04
3.500100000000000211e+00 1.107587031012249827e+04
3.542300000000000004e+00 1.192601001368871766e+04
3.584499999999999797e+00 1.289741468140491634e+04
3.626599999999999824e+00 1.402003042319016095e+04
3.668800000000000061e+00 1.533332042350268785e+04
3.710999999999999854e+00 1.690348418879988822e+04
3.753099999999999881e+00 1.877998979122847231e+04
3.795300000000000118e+00 2.103797983010386815e+04
3.837499999999999911e+00 2.380605144573252983e+04
3.879599999999999937e+00 2.722182366567768258e+04
3.921800000000000175e+00 3.140634270809709778e+04
3.963999999999999968e+00 3.657079927510162088e+04
4.006199999999999761e+00 4.297181340699457360e+04
4.048300000000000232e+00 5.057422918545119319e+04
4.090499999999999581e+00 5.932057674783090624e+04
4.132699999999999818e+00 6.957104695523343980e+04
4.174800000000000288e+00 8.203092625225392112e+04
4.216999999999999638e+00 9.817813007698892034e+04
4.259199999999999875e+00 1.184757918638247502e+05
4.301300000000000345e+00 1.414700638222963316e+05
4.343499999999999694e+00 1.649273219436755753e+05
4.385699999999999932e+00 1.885673339715134643e+05
4.427900000000000169e+00 2.130717874810249195e+05
4.469999999999999751e+00 2.391961031959352258e+05
4.512199999999999989e+00 2.662453643031275715e+05
4.554400000000000226e+00 2.931219764053160907e+05
4.596499999999999808e+00 3.185282682936948258e+05
4.638700000000000045e+00 3.417978155588739901e+05
4.680900000000000283e+00 3.634738268178165890e+05
4.722999999999999865e+00 3.823782462781179929e+05
4.765200000000000102e+00 3.991246828605197370e+05
4.807400000000000340e+00 4.163523208583617816e+05
4.849599999999999689e+00 4.346495804971561884e+05
4.891700000000000159e+00 4.527898617718711612e+05
4.933900000000000396e+00 4.693363039080637973e+05
4.976099999999999746e+00 4.830406046945933485e+05
5.018200000000000216e+00 4.926474878117026528e+05
5.060399999999999565e+00 4.982330380070090177e+05
5.102599999999999802e+00 5.003391340981516405e+05
5.144700000000000273e+00 4.994228141764012980e+05
5.186899999999999622e+00 4.973706055006326642e+05
5.229099999999999859e+00 4.950827184483825695e+05
5.271300000000000097e+00 4.905472636223877198e+05
5.313399999999999679e+00 4.830883830873526749e+05
5.355599999999999916e+00 4.735604039675314561e+05
5.397800000000000153e+00 4.635546135592540959e+05
5.439899999999999736e+00 4.544778799615551252e+05
5.482099999999999973e+00 4.464290517815698986e+05
5.524300000000000210e+00 4.398443137294074986e+05
5.566399999999999793e+00 4.352491481159488903e+05
5.608600000000000030e+00 4.323295409883410321e+05
5.650800000000000267e+00 4.312699762797961594e+05
5.692999999999999616e+00 4.322509520580449025e+05
5.735100000000000087e+00 4.344648264251688961e+05
5.777300000000000324e+00 4.369914981146574719e+05
5.819499999999999673e+00 4.400083049254578073e+05
5.861600000000000144e+00 4.456937001268666936e+05
5.903800000000000381e+00 4.555276577896979288e+05
5.945999999999999730e+00 4.687461214897125610e+05
5.988100000000000200e+00 4.835993396862710943e+05
6.030300000000000438e+00 4.998942702834793599e+05
6.072499999999999787e+00 5.185444086419354426e+05
6.114700000000000024e+00 5.397410480821179226e+05
6.156799999999999606e+00 5.640435081532901386e+05
6.198999999999999844e+00 5.921113885819190182e+05
6.241200000000000081e+00 6.230168419243948301e+05
6.283299999999999663e+00 6.542506804341064999e+05
6.325499999999999901e+00 6.845348463378857123e+05
6.367700000000000138e+00 7.122990209775620606e+05
6.409799999999999720e+00 7.361898629110465990e+05
6.451999999999999957e+00 7.575860693464422366e+05
6.494200000000000195e+00 7.786617076263049385e+05
6.536400000000000432e+00 8.011874500742654782e+05
6.578500000000000014e+00 8.243536148111129878e+05
6.620700000000000252e+00 8.471313113569837296e+05
6.662899999999999601e+00 8.696383476165898610e+05
6.705000000000000071e+00 8.900525517325452529e+05
6.747200000000000308e+00 9.066971073339889990e+05
6.789399999999999658e+00 9.193844272929747822e+05
6.831500000000000128e+00 9.282667836187132634e+05
6.873700000000000365e+00 9.356939727223215159e+05
6.915899999999999714e+00 9.442062191638083896e+05
6.958099999999999952e+00 9.537744529421108309e+05
7.000200000000000422e+00 9.629240942726135254e+05
7.042399999999999771e+00 9.698638405458249617e+05
7.084600000000000009e+00 9.737433195276811020e+05
7.126699999999999591e+00 9.744766615764470771e+05
7.168899999999999828e+00 9.731813512052834267e+05
7.211100000000000065e+00 9.707336488207272487e+05
7.253199999999999648e+00 9.666830544412496965e+05
7.295399999999999885e+00 9.600344004229628481e+05
7.337600000000000122e+00 9.508149561308673583e+05
7.379800000000000360e+00 9.402482361728895921e+05
7.421899999999999942e+00 9.297300842420716072e+05
7.464100000000000179e+00 9.196889820149870357e+05
7.506300000000000416e+00 9.105326983124976978e+05
7.548399999999999999e+00 9.028609839521838585e+05
7.590600000000000236e+00 8.963195899755385472e+05
7.632799999999999585e+00 8.912239189123488031e+05
7.674900000000000055e+00 8.885951223049671389e+05
7.717100000000000293e+00 8.886459464668886503e+05
7.759299999999999642e+00 8.901941052110018209e+05
7.801499999999999879e+00 8.913363943755972432e+05
7.843600000000000350e+00 8.913608767035786295e+05
7.885799999999999699e+00 8.912741257618581876e+05
7.927999999999999936e+00 8.916878429594249465e+05
7.970100000000000406e+00 8.921070618160178419e+05
8.012299999999999756e+00 8.922418039396879030e+05
8.054500000000000881e+00 8.914777599622089183e+05
8.096600000000000463e+00 8.897255976728753885e+05
8.138799999999999812e+00 8.880765595649204915e+05
8.180999999999999162e+00 8.873200709754137788e+05
8.223200000000000287e+00 8.866908646816700930e+05
8.265299999999999869e+00 8.845339783781256992e+05
8.307499999999999218e+00 8.818427420464113820e+05
8.349700000000000344e+00 8.803536403379759286e+05
8.391799999999999926e+00 8.794624488602320198e+05
8.433999999999999275e+00 8.784038070172889857e+05
8.476200000000000401e+00 8.774729744029982248e+05
8.518299999999999983e+00 8.776957425911079627e+05
8.560499999999999332e+00 8.794471039802465821e+05
8.602700000000000458e+00 8.818534180850556586e+05
8.644899999999999807e+00 8.844836895628655329e+05
8.686999999999999389e+00 8.879851793658040697e+05
8.729200000000000514e+00 8.925173297315365635e+05
8.771399999999999864e+00 8.973953841816338245e+05
8.813499999999999446e+00 9.014729116149045294e+05
8.855700000000000571e+00 9.046963376716896892e+05
8.897899999999999920e+00 9.080303877836292377e+05
8.939999999999999503e+00 9.124477962244676892e+05
8.982200000000000628e+00 9.175075766347487224e+05
9.024399999999999977e+00 9.217781982600585325e+05
9.066599999999999326e+00 9.241341173852690263e+05
9.108700000000000685e+00 9.248686102354057366e+05
9.150900000000000034e+00 9.250166762827736093e+05
9.193099999999999383e+00 9.259852115737171844e+05
9.235200000000000742e+00 9.280538115204133792e+05
9.277400000000000091e+00 9.305686476623421768e+05
9.319599999999999440e+00 9.329378279499911005e+05
9.361700000000000799e+00 9.352936610699606827e+05
9.403900000000000148e+00 9.378967633108589798e+05
9.446099999999999497e+00 9.398290977348992601e+05
9.488300000000000622e+00 9.406804009399098577e+05
9.530400000000000205e+00 9.408250698808304733e+05
9.572599999999999554e+00 9.404601549796559848e+05
9.614800000000000679e+00 9.399342616269709542e+05
9.656900000000000261e+00 9.391402537309427280e+05
9.699099999999999611e+00 9.379341607620315626e+05
9.741300000000000736e+00 9.372297556077672634e+05
9.783400000000000318e+00 9.376003653628862230e+05
9.825599999999999667e+00 9.395978793533325661e+05
9.867800000000000793e+00 9.438829669889326906e+05
9.910000000000000142e+00 9.501187044791369699e+05
9.952099999999999724e+00 9.569971156850979896e+05
9.994300000000000850e+00 9.625718801803198876e+05
1.003650000000000020e+01 9.660076156309274957e+05
1.007859999999999978e+01 9.679463507477884414e+05
1.012079999999999913e+01 9.699949346816247562e+05
1.016300000000000026e+01 9.731870215682799462e+05
1.020509999999999984e+01 9.770688769871193217e+05
1.024729999999999919e+01 9.805581939645322273e+05
1.028950000000000031e+01 9.833340176612827927e+05
1.033169999999999966e+01 9.867377100762288319e+05
1.037379999999999924e+01 9.917336905787209980e+05
1.041600000000000037e+01 9.979422805166331818e+05
1.045819999999999972e+01 1.004225233968950692e+06
1.050029999999999930e+01 1.009225992372551700e+06
1.054250000000000043e+01 1.011469336631202605e+06
1.058469999999999978e+01 1.010352591774148867e+06
1.062679999999999936e+01 1.006735868816230097e+06
1.066900000000000048e+01 1.001745134886375163e+06
1.071119999999999983e+01 9.958811848196587525e+05
1.075339999999999918e+01 9.899880191731202649e+05
1.079550000000000054e+01 9.860157731649860507e+05
1.083769999999999989e+01 9.842650722235051217e+05
1.087989999999999924e+01 9.824549472757551121e+05
1.092200000000000060e+01 9.780651035804508720e+05
1.096419999999999995e+01 9.704117489266057964e+05
1.100639999999999930e+01 9.611338592985017458e+05
1.104850000000000065e+01 9.523282939288215712e+05
1.109070000000000000e+01 9.444567209214889444e+05
1.113289999999999935e+01 9.372825005574193783e+05
1.117510000000000048e+01 9.305299325303317746e+05
1.121720000000000006e+01 9.238954661958687939e+05
1.125939999999999941e+01 9.176833198309169384e+05
1.130160000000000053e+01 9.125089791543824831e+05
1.134370000000000012e+01 9.082500654915375635e+05
1.138589999999999947e+01 9.036022215463307220e+05
1.142810000000000059e+01 8.966237662468180060e+05
1.147020000000000017e+01 8.868623146263055969e+05
1.151239999999999952e+01 8.750862572328598471e+05
1.155460000000000065e+01 8.619109718595405575e+05
1.159680000000000000e+01 8.489754669745997526e+05
1.163889999999999958e+01 8.394043377725202590e+05
1.168110000000000070e+01 8.352290528503282694e+05
1.172330000000000005e+01 8.349756655320266727e+05
1.176539999999999964e+01 8.360259474998728838e+05
1.180760000000000076e+01 8.362914278091071174e+05
1.184980000000000011e+01 8.350326002485119971e+05
1.189189999999999969e+01 8.330109476398858242e+05
1.193410000000000082e+01 8.307705339577294653e+05
1.197630000000000017e+01 8.286262301500579342e+05
1.201849999999999952e+01 8.278508946495041018e+05
1.206060000000000088e+01 8.295157917798745912e+05
1.210280000000000022e+01 8.330272238070333842e+05
1.214499999999999957e+01 8.365965674908378860e+05
1.218709999999999916e+01 8.398584963354249485e+05
1.222930000000000028e+01 8.432326770798388170e+05
1.227149999999999963e+01 8.460722715958780609e+05
1.231359999999999921e+01 8.479717848238820443e+05
1.235580000000000034e+01 8.492239183596477378e+05
1.239799999999999969e+01 8.502800602498773951e+05
1.244020000000000081e+01 8.521782050196346827e+05
1.248230000000000040e+01 8.567137129029991338e+05
1.252449999999999974e+01 8.649973848421366420e+05
1.256670000000000087e+01 8.760410637372992933e+05
1.260880000000000045e+01 8.870818506229880732e+05
1.265099999999999980e+01 8.966119353698750492e+05
1.269319999999999915e+01 9.040981341928803595e+05
1.273540000000000028e+01 9.084707109457456972e+05
1.277749999999999986e+01 9.091716951475922251e+05
1.281969999999999921e+01 9.055952148087179521e+05
1.286190000000000033e+01 8.978974390506302007e+05
1.290399999999999991e+01 8.885230466989965644e+05
1.294619999999999926e+01 8.814590893914364278e+05
1.298840000000000039e+01 8.793074245240953751e+05
1.303049999999999997e+01 8.817434591761330375e+05
1.307269999999999932e+01 8.863569429361583898e+05
1.311490000000000045e+01 8.891419649528271984e+05
1.315709999999999980e+01 8.883275287352954037e+05
1.319919999999999938e+01 8.860460462314545875e+05
1.324140000000000050e+01 8.853691218171718065e+05
1.328359999999999985e+01 8.871442374744596891e+05
1.332569999999999943e+01 8.902416983196595684e+05
1.336790000000000056e+01 8.927293917235014960e+05
1.341009999999999991e+01 8.943822746564632980e+05
1.345219999999999949e+01 8.970007554985224269e+05
1.349440000000000062e+01 9.011865709938264918e+05
1.353659999999999997e+01 9.048865631242872914e+05
1.357879999999999932e+01 9.065305944359299028e+05
1.362090000000000067e+01 9.068268417691685027e+05
1.366310000000000002e+01 9.068448809900821652e+05
1.370529999999999937e+01 9.061518190718957921e+05
1.374740000000000073e+01 9.054190342071934137e+05
1.378960000000000008e+01 9.070764006549288752e+05
1.383179999999999943e+01 9.118504512366250856e+05
1.387390000000000079e+01 9.191931975879892707e+05
1.391610000000000014e+01 9.302917019651437877e+05
1.395829999999999949e+01 9.461128093160912395e+05
1.400050000000000061e+01 9.658176346024079248e+05
1.404260000000000019e+01 9.875564556085907388e+05
1.408479999999999954e+01 1.008240601346433861e+06
1.412700000000000067e+01 1.024347820564129623e+06
1.416910000000000025e+01 1.034145140149036306e+06
1.421129999999999960e+01 1.037915708660967415e+06
1.425350000000000072e+01 1.037073248421741999e+06
1.429560000000000031e+01 1.033122907994808629e+06
1.433779999999999966e+01 1.027192390546674258e+06
1.438000000000000078e+01 1.019772535097239190e+06
1.442220000000000013e+01 1.011941299054092495e+06
1.446429999999999971e+01 1.004741879477922339e+06
1.450650000000000084e+01 9.979800114548502024e+05
1.454870000000000019e+01 9.921875133039036300e+05
1.459079999999999977e+01 9.893782386409357423e+05
1.463299999999999912e+01 9.909754871132955886e+05
1.467520000000000024e+01 9.960711676808748161e+05
1.471729999999999983e+01 1.003673296085417154e+06
1.475949999999999918e+01 1.012115927871735417e+06
1.480170000000000030e+01 1.017843527191961184e+06
1.484389999999999965e+01 1.018085496288333903e+06
1.488599999999999923e+01 1.012667726491342881e+06
1.492820000000000036e+01 1.004033248345112894e+06
1.497039999999999971e+01 9.947743623695194256e+05
1.501249999999999929e+01 9.859477515090790112e+05
1.505470000000000041e+01 9.786591911033657379e+05
1.509689999999999976e+01 9.735204248681798344e+05
1.513899999999999935e+01 9.709297527444800362e+05
1.518120000000000047e+01 9.715045073392092017e+05
1.522339999999999982e+01 9.766616922074422473e+05
1.526559999999999917e+01 9.864166758381103864e+05
1.530770000000000053e+01 9.989644820807229262e+05
1.534989999999999988e+01 1.013972954761835048e+06
1.539209999999999923e+01 1.031355953861874994e+06
1.543420000000000059e+01 1.048420130240917439e+06
1.547639999999999993e+01 1.063073902390221832e+06
1.551859999999999928e+01 1.073617182410855778e+06
1.556070000000000064e+01 1.078303422743570525e+06
1.560289999999999999e+01 1.077773093320391839e+06
1.564509999999999934e+01 1.075454112497209571e+06
1.568730000000000047e+01 1.073754325361220632e+06
1.572940000000000005e+01 1.072781249826622661e+06
1.577159999999999940e+01 1.071921723258758429e+06
1.581380000000000052e+01 1.070779606680813944e+06
1.585590000000000011e+01 1.069358564366230043e+06
1.589809999999999945e+01 1.067954568977569230e+06
1.594030000000000058e+01 1.067460999199416023e+06
1.598240000000000016e+01 1.068127440456141951e+06
1.602459999999999951e+01 1.068572837591249030e+06
1.606680000000000064e+01 1.066965184858997352e+06
1.610900000000000176e+01 1.062874798549915198e+06
1.615109999999999957e+01 1.057505509471040685e+06
1.619330000000000069e+01 1.052725467326401500e+06
1.623549999999999827e+01 1.049103381666674512e+06
1.627759999999999962e+01 1.046536260264224373e+06
1.631980000000000075e+01 1.044528378083321382e+06
1.636199999999999832e+01 1.041425050048758974e+06
1.640409999999999968e+01 1.036345832550759893e+06
1.644630000000000081e+01 1.029541743816225673e+06
1.648849999999999838e+01 1.022473520183668123e+06
1.653069999999999951e+01 1.015595826054493780e+06
1.657280000000000086e+01 1.007747714404577622e+06
1.661499999999999844e+01 9.975833461788495770e+05
1.665719999999999956e+01 9.863207909597194521e+05
1.669930000000000092e+01 9.757064624168609735e+05
1.674149999999999849e+01 9.663734583097454160e+05
1.678369999999999962e+01 9.578595835084706778e+05
