# energy(eV) alpha
0.000000000000000000e+00 0.000000000000000000e+00
4.030000000000000249e-02 1.245877728710108601e+00
8.050000000000000211e-02 5.111370744189042803e+00
1.208000000000000046e-01 1.130179285006963141e+01
1.610999999999999932e-01 2.004712689723260510e+01
2.013999999999999957e-01 3.178114270604833891e+01
2.416000000000000092e-01 4.557291792976997158e+01
2.818999999999999839e-01 6.232599859056631431e+01
3.221999999999999864e-01 8.195064924282910113e+01
3.624999999999999889e-01 1.042372807163189634e+02
4.027000000000000024e-01 1.291465659252077387e+02
4.430000000000000049e-01 1.570966808500822083e+02
4.833000000000000074e-01 1.885509728727913057e+02
5.234999999999999654e-01 2.227829198501434291e+02
5.637999999999999678e-01 2.598583608483683633e+02
6.040999999999999703e-01 3.012298671353028681e+02
6.443999999999999728e-01 3.455717568965621354e+02
6.845999999999999863e-01 3.945066566890237709e+02
7.248999999999999888e-01 4.472217658918715983e+02
7.651999999999999913e-01 5.043687600437464766e+02
8.054999999999999938e-01 5.654507684922549515e+02
8.457000000000000073e-01 6.318533157885264018e+02
8.860000000000000098e-01 7.039772697333360156e+02
9.263000000000000123e-01 7.812393978091475901e+02
9.665000000000000258e-01 8.644981533842468480e+02
1.006799999999999917e+00 9.549912932484874091e+02
1.047099999999999920e+00 1.051243590777553891e+03
1.087399999999999922e+00 1.157813760292406187e+03
1.127599999999999936e+00 1.271511568477852734e+03
1.167899999999999938e+00 1.394648178734679959e+03
1.208199999999999941e+00 1.529446513480282192e+03
1.248499999999999943e+00 1.675430655707887581e+03
1.288699999999999957e+00 1.836002840167921477e+03
1.328999999999999959e+00 2.012108286697483436e+03
1.369299999999999962e+00 2.206423496360140234e+03
1.409499999999999975e+00 2.421823992821228785e+03
1.449799999999999978e+00 2.664144171495575392e+03
1.490099999999999980e+00 2.935527673791042616e+03
1.530399999999999983e+00 3.242012765972796387e+03
1.570599999999999996e+00 3.597097841648077065e+03
1.610899999999999999e+00 4.010798902109585470e+03
1.651200000000000001e+00 4.503233584556069218e+03
1.691500000000000004e+00 5.099730684516896872e+03
1.731700000000000017e+00 5.846582976198392316e+03
1.772000000000000020e+00 6.817910213909418417e+03
1.812300000000000022e+00 8.133660998897485115e+03
1.852500000000000036e+00 9.998999198893961875e+03
1.892800000000000038e+00 1.271060163505540186e+04
1.933100000000000041e+00 1.644197826714746043e+04
1.973400000000000043e+00 2.048447878694368410e+04
2.013599999999999834e+00 2.324449444409802527e+04
2.053900000000000059e+00 2.407590850214188686e+04
2.094199999999999839e+00 2.396861639427756018e+04
2.134500000000000064e+00 2.491288560158633845e+04
2.174700000000000077e+00 2.840817358568464260e+04
2.214999999999999858e+00 3.534734140156576177e+04
2.255300000000000082e+00 4.582601906395460537e+04
2.295500000000000096e+00 5.715332637129569048e+04
2.335799999999999876e+00 6.441898852495984465e+04
2.376100000000000101e+00 6.547907256817309099e+04
2.416399999999999881e+00 6.163095813116119825e+04
2.456599999999999895e+00 5.721068015729969920e+04
2.496900000000000119e+00 5.703648574878863292e+04
2.537199999999999900e+00 6.303081401823886699e+04
2.577500000000000124e+00 7.338125998416305811e+04
2.617700000000000138e+00 8.466605459551469539e+04
2.657999999999999918e+00 9.528752585142475436e+04
2.698300000000000143e+00 1.029740024557345751e+05
2.738599999999999923e+00 1.065119883508018975e+05
2.778799999999999937e+00 1.063754965733367135e+05
2.819100000000000161e+00 1.063323110399813449e+05
2.859399999999999942e+00 1.086375840437239676e+05
2.899599999999999955e+00 1.139998550292654982e+05
2.939900000000000180e+00 1.227566442451233015e+05
2.980199999999999960e+00 1.339366447926831606e+05
3.020500000000000185e+00 1.502227751092877588e+05
3.060700000000000198e+00 1.738663718898305378e+05
3.100999999999999979e+00 1.990661334242188605e+05
3.141300000000000203e+00 2.162811044200549368e+05
3.181599999999999984e+00 2.204458465776048542e+05
3.221799999999999997e+00 2.160678590403903800e+05
3.262100000000000222e+00 2.116818895614911162e+05
3.302400000000000002e+00 2.130075032323498162e+05
3.342600000000000016e+00 2.197899008093774028e+05
3.382899999999999796e+00 2.298007696100237663e+05
3.423200000000000021e+00 2.415220306982973125e+05
3.463499999999999801e+00 2.506684892094452807e+05
3.503699999999999815e+00 2.579822558991155820e+05
3.544000000000000039e+00 2.598974440796597337e+05
3.584299999999999820e+00 2.499195072532367194e+05
3.624600000000000044e+00 2.344731990423655952e+05
3.664800000000000058e+00 2.254317323975239124e+05
3.705099999999999838e+00 2.288547100488772558e+05
3.745400000000000063e+00 2.406255839332375326e+05
3.785600000000000076e+00 2.540015424434120359e+05
3.825899999999999856e+00 2.705650969696689863e+05
3.866200000000000081e+00 2.944797683713057195e+05
3.906499999999999861e+00 3.230519895813253243e+05
3.946699999999999875e+00 3.468812419805114623e+05
3.987000000000000099e+00 3.554846721945494646e+05
4.027300000000000324e+00 3.550683786887875758e+05
4.067599999999999660e+00 3.528503165779237752e+05
4.107800000000000118e+00 3.489979696786943241e+05
4.148100000000000342e+00 3.515770528186482261e+05
4.188399999999999679e+00 3.670004738257376011e+05
4.228600000000000136e+00 3.898626040945310378e+05
4.268900000000000361e+00 4.102562064498937107e+05
4.309199999999999697e+00 4.265699084618177731e+05
4.349499999999999922e+00 4.354358381039061351e+05
4.389700000000000379e+00 4.339933295018406934e+05
4.429999999999999716e+00 4.281915183608723455e+05
4.470299999999999940e+00 4.198274643143521971e+05
4.510600000000000165e+00 4.108169623785641743e+05
4.550799999999999734e+00 4.082495893357147579e+05
4.591099999999999959e+00 4.173164229692520457e+05
4.631400000000000183e+00 4.405667226412299206e+05
4.671599999999999753e+00 4.723217948213996715e+05
4.711899999999999977e+00 5.009942610706004198e+05
4.752200000000000202e+00 5.163951865276575554e+05
4.792500000000000426e+00 5.172850511494132224e+05
4.832699999999999996e+00 5.134430670865394059e+05
4.873000000000000220e+00 5.163899693195443833e+05
4.913299999999999557e+00 5.278659449600945227e+05
4.953599999999999781e+00 5.428514435287001543e+05
4.993800000000000239e+00 5.546372563521765405e+05
5.034099999999999575e+00 5.589158012541221688e+05
5.074399999999999800e+00 5.542528825884624384e+05
5.114600000000000257e+00 5.435647528094983427e+05
5.154899999999999594e+00 5.303673745099116350e+05
5.195199999999999818e+00 5.210464812382870587e+05
5.235500000000000043e+00 5.218165754818068235e+05
5.275699999999999612e+00 5.315261913302763132e+05
5.315999999999999837e+00 5.452160587954012444e+05
5.356300000000000061e+00 5.598803164835983189e+05
5.396600000000000286e+00 5.734305068913582945e+05
5.436799999999999855e+00 5.838759548317543231e+05
5.477100000000000080e+00 5.916330881213115063e+05
5.517400000000000304e+00 5.965264602958905743e+05
5.557599999999999874e+00 5.983604846390592866e+05
5.597900000000000098e+00 5.978712916272068396e+05
5.638200000000000323e+00 5.956046136701118667e+05
5.678499999999999659e+00 5.913355175063810311e+05
5.718700000000000117e+00 5.846463086568643339e+05
5.759000000000000341e+00 5.762541857713629724e+05
5.799299999999999677e+00 5.668645071537527256e+05
5.839599999999999902e+00 5.557556127227764810e+05
5.879800000000000360e+00 5.422042247417651815e+05
5.920099999999999696e+00 5.266986163037291262e+05
5.960399999999999920e+00 5.103903758431402384e+05
6.000600000000000378e+00 4.944683322459643241e+05
6.040899999999999714e+00 4.792952647379721748e+05
6.081199999999999939e+00 4.644657274088828126e+05
6.121500000000000163e+00 4.508392264103716007e+05
6.161699999999999733e+00 4.380961243661591434e+05
6.201999999999999957e+00 4.242789063216784270e+05
6.242300000000000182e+00 4.101748525010212325e+05
6.282600000000000406e+00 3.978819930973253213e+05
6.322799999999999976e+00 3.886357194868943188e+05
6.363100000000000200e+00 3.832499313480544370e+05
6.403400000000000425e+00 3.821250100321299979e+05
6.443599999999999994e+00 3.839359025317492196e+05
6.483900000000000219e+00 3.868579870214667753e+05
6.524200000000000443e+00 3.903048746827291907e+05
6.564499999999999780e+00 3.938258462189075653e+05
6.604700000000000237e+00 3.959680096486182883e+05
6.644999999999999574e+00 3.971646930077463621e+05
6.685299999999999798e+00 3.990554969279690413e+05
6.725600000000000023e+00 4.033772359476709971e+05
6.765799999999999592e+00 4.118726731895511039e+05
6.806099999999999817e+00 4.239739107957597007e+05
6.846400000000000041e+00 4.363334753838967299e+05
6.886599999999999611e+00 4.464768706892851042e+05
6.926899999999999835e+00 4.550191751578167314e+05
6.967200000000000060e+00 4.646377892102529877e+05
7.007500000000000284e+00 4.773760844989121542e+05
7.047699999999999854e+00 4.928490163017442101e+05
7.088000000000000078e+00 5.121887742590305279e+05
7.128300000000000303e+00 5.353181771971924463e+05
7.168599999999999639e+00 5.584819391500541242e+05
7.208800000000000097e+00 5.774041977029982954e+05
7.249100000000000321e+00 5.911556432821801864e+05
7.289399999999999658e+00 6.011148381995337550e+05
7.329600000000000115e+00 6.075084564493327634e+05
7.369900000000000340e+00 6.097115337695854250e+05
7.410199999999999676e+00 6.079618976944298483e+05
7.450499999999999901e+00 6.032676814060948091e+05
7.490700000000000358e+00 5.976607208495080704e+05
7.530999999999999694e+00 5.942143190267627360e+05
7.571299999999999919e+00 5.944473503090010490e+05
7.611600000000000144e+00 5.975960589211033657e+05
7.651799999999999713e+00 6.025696241036498686e+05
7.692099999999999937e+00 6.099559891601387644e+05
7.732400000000000162e+00 6.205113468615687452e+05
7.772700000000000387e+00 6.328880483996957773e+05
7.812899999999999956e+00 6.450082470476217568e+05
7.853200000000000180e+00 6.549324854371581459e+05
7.893500000000000405e+00 6.609203197924247943e+05
7.933699999999999974e+00 6.640327306336733745e+05
7.974000000000000199e+00 6.670954359420491382e+05
8.014300000000000423e+00 6.716990730551732704e+05
8.054600000000000648e+00 6.771103038549271878e+05
8.094799999999999329e+00 6.813973371492674341e+05
8.135099999999999554e+00 6.832749360397475539e+05
8.175399999999999778e+00 6.836535585661034565e+05
8.215700000000000003e+00 6.837206032384046121e+05
8.255900000000000460e+00 6.844339360024154885e+05
8.296200000000000685e+00 6.872367104333513416e+05
8.336499999999999133e+00 6.919902274612414185e+05
8.376699999999999591e+00 6.980600072875514161e+05
8.416999999999999815e+00 7.053452141174292192e+05
8.457300000000000040e+00 7.134786828278652392e+05
8.497600000000000264e+00 7.207280914526397828e+05
8.537800000000000722e+00 7.262397828965194058e+05
8.578099999999999170e+00 7.324522331485284958e+05
8.618399999999999395e+00 7.416370294195384486e+05
8.658699999999999619e+00 7.533452988547717687e+05
8.698900000000000077e+00 7.658519557936779456e+05
8.739200000000000301e+00 7.773630346030661603e+05
8.779500000000000526e+00 7.860382515661311336e+05
8.819699999999999207e+00 7.909488409767923877e+05
8.859999999999999432e+00 7.925851779323701048e+05
8.900299999999999656e+00 7.915902676289615920e+05
8.940599999999999881e+00 7.881908775653813500e+05
8.980800000000000338e+00 7.808226588307057973e+05
9.021100000000000563e+00 7.693063872228751425e+05
9.061400000000000787e+00 7.570192853288836777e+05
9.101699999999999235e+00 7.469939381450712681e+05
9.141899999999999693e+00 7.382975261131031439e+05
9.182199999999999918e+00 7.276152648468540283e+05
9.222500000000000142e+00 7.140927792660791893e+05
9.262700000000000600e+00 6.987507555219862843e+05
9.303000000000000824e+00 6.821232581431418657e+05
9.343299999999999272e+00 6.655028850857488578e+05
9.383599999999999497e+00 6.501497858413039939e+05
9.423799999999999955e+00 6.358926173966132337e+05
9.464100000000000179e+00 6.222461435828899266e+05
9.504400000000000404e+00 6.101275259267861256e+05
9.544700000000000628e+00 5.997701077499908861e+05
9.584899999999999309e+00 5.891571554111319128e+05
9.625199999999999534e+00 5.757716732743988978e+05
9.665499999999999758e+00 5.593492452465879032e+05
9.705700000000000216e+00 5.432057865528481780e+05
9.746000000000000441e+00 5.310573737754117465e+05
9.786300000000000665e+00 5.240610210411300068e+05
9.826599999999999113e+00 5.206981996016611811e+05
9.866799999999999571e+00 5.197570466607006965e+05
9.907099999999999795e+00 5.218321802954193554e+05
9.947400000000000020e+00 5.260215004401209299e+05
9.987700000000000244e+00 5.296846412986762589e+05
1.002790000000000070e+01 5.317494900383524364e+05
1.006819999999999915e+01 5.327315717003890313e+05
1.010849999999999937e+01 5.345686628165624570e+05
1.014869999999999983e+01 5.394710545220092172e+05
1.018900000000000006e+01 5.476121819472941570e+05
1.022930000000000028e+01 5.580067368663635571e+05
1.026960000000000051e+01 5.710070918240906904e+05
1.030979999999999919e+01 5.884956367626399733e+05
1.035009999999999941e+01 6.143600388090525521e+05
1.039039999999999964e+01 6.520749180843215436e+05
1.043069999999999986e+01 7.013594561284623342e+05
1.047090000000000032e+01 7.592427226442926330e+05
1.051120000000000054e+01 8.223191698028604733e+05
1.055150000000000077e+01 8.863743890096265823e+05
1.059169999999999945e+01 9.460496905059375567e+05
1.063199999999999967e+01 9.991723588949799305e+05
1.067229999999999990e+01 1.045423044464017148e+06
1.071260000000000012e+01 1.081570285326462472e+06
1.075280000000000058e+01 1.105861788199105999e+06
1.079310000000000080e+01 1.117755071731395088e+06
1.083339999999999925e+01 1.118107640773819294e+06
1.087369999999999948e+01 1.113254680978513556e+06
1.091389999999999993e+01 1.111137361111667706e+06
1.095420000000000016e+01 1.115054867873651208e+06
1.099450000000000038e+01 1.124612021734020440e+06
1.103470000000000084e+01 1.137721864636235638e+06
1.107499999999999929e+01 1.150419662107758923e+06
1.111529999999999951e+01 1.158377338730429998e+06
1.115559999999999974e+01 1.157355424922842067e+06
1.119580000000000020e+01 1.145105586048137629e+06
1.123610000000000042e+01 1.124336937214715639e+06
1.127640000000000065e+01 1.098971566293374868e+06
1.131670000000000087e+01 1.072196688237151131e+06
1.135689999999999955e+01 1.046743660393480561e+06
1.139719999999999978e+01 1.023703967626509257e+06
1.143750000000000000e+01 1.001898494147319929e+06
1.147770000000000046e+01 9.801026675560483709e+05
1.151800000000000068e+01 9.599705910489704693e+05
1.155829999999999913e+01 9.457729958926241379e+05
1.159859999999999935e+01 9.411285992570627714e+05
1.163879999999999981e+01 9.452320977128999075e+05
1.167910000000000004e+01 9.535151141010945430e+05
1.171940000000000026e+01 9.616178270559834782e+05
1.175970000000000049e+01 9.673847833306910470e+05
1.179989999999999917e+01 9.722058841668906389e+05
1.184019999999999939e+01 9.794811839758593123e+05
1.188049999999999962e+01 9.901426206683954224e+05
1.192070000000000007e+01 1.001760864349568496e+06
1.196100000000000030e+01 1.011924522884297883e+06
1.200130000000000052e+01 1.019301187613792717e+06
1.204160000000000075e+01 1.023652959168758476e+06
1.208179999999999943e+01 1.027614315974449739e+06
1.212209999999999965e+01 1.032459168388630031e+06
1.216239999999999988e+01 1.034713189426667872e+06
1.220270000000000010e+01 1.030422179322638432e+06
1.224290000000000056e+01 1.019883079572785646e+06
1.228320000000000078e+01 1.007261709045472322e+06
1.232349999999999923e+01 9.973408951177860145e+05
1.236369999999999969e+01 9.927765378764178604e+05
1.240399999999999991e+01 9.941639037148714997e+05
1.244430000000000014e+01 9.995856970064628404e+05
1.248460000000000036e+01 1.006350879229894490e+06
1.252480000000000082e+01 1.011104842828132794e+06
1.256509999999999927e+01 1.013375009309221175e+06
1.260539999999999949e+01 1.014775388638562406e+06
1.264569999999999972e+01 1.015607696454478777e+06
1.268590000000000018e+01 1.012040087948838598e+06
1.272620000000000040e+01 1.000084952389891143e+06
1.276650000000000063e+01 9.814816427407404408e+05
1.280680000000000085e+01 9.603773201114773983e+05
1.284699999999999953e+01 9.385240190366309835e+05
1.288729999999999976e+01 9.168228755285135703e+05
1.292759999999999998e+01 8.974829955895525636e+05
1.296780000000000044e+01 8.826043547093884554e+05
1.300810000000000066e+01 8.701439877660018392e+05
1.304840000000000089e+01 8.549644083376282360e+05
1.308869999999999933e+01 8.329781834526384482e+05
1.312889999999999979e+01 8.037092083890879294e+05
1.316920000000000002e+01 7.726025635031899437e+05
1.320950000000000024e+01 7.463096835501648020e+05
1.324980000000000047e+01 7.277941646017135354e+05
1.328999999999999915e+01 7.173737784609097289e+05
1.333029999999999937e+01 7.135178151994567597e+05
1.337059999999999960e+01 7.134173799746043514e+05
1.341080000000000005e+01 7.145033509411781561e+05
1.345110000000000028e+01 7.153362572584000882e+05
1.349140000000000050e+01 7.162786021976672346e+05
1.353170000000000073e+01 7.190254378514747368e+05
1.357189999999999941e+01 7.254908839381623548e+05
1.361219999999999963e+01 7.359702318451943574e+05
1.365249999999999986e+01 7.507570876979101449e+05
1.369280000000000008e+01 7.721578212206565076e+05
1.373300000000000054e+01 7.996525767189557664e+05
1.377330000000000076e+01 8.280903766212308547e+05
1.381359999999999921e+01 8.530294574652917217e+05
1.385379999999999967e+01 8.746141069286881248e+05
1.389409999999999989e+01 8.971739318840856431e+05
1.393440000000000012e+01 9.231070185676524416e+05
1.397470000000000034e+01 9.516013557245922275e+05
1.401490000000000080e+01 9.817175900104139000e+05
1.405519999999999925e+01 1.013585828796834336e+06
1.409549999999999947e+01 1.046934020502482541e+06
1.413579999999999970e+01 1.081898743050354533e+06
1.417600000000000016e+01 1.119180421098998049e+06
1.421630000000000038e+01 1.156898981145104626e+06
1.425660000000000061e+01 1.189410415623666951e+06
1.429679999999999929e+01 1.213114207161298255e+06
1.433709999999999951e+01 1.226752529366782634e+06
1.437739999999999974e+01 1.229067670463782735e+06
1.441769999999999996e+01 1.220118403847246896e+06
1.445790000000000042e+01 1.203099733921632171e+06
1.449820000000000064e+01 1.180507665771592176e+06
1.453850000000000087e+01 1.153590141276762588e+06
1.457879999999999932e+01 1.125304218928294955e+06
1.461899999999999977e+01 1.098283815616818611e+06
1.465930000000000000e+01 1.070546599790286273e+06
1.469960000000000022e+01 1.039507979663202888e+06
1.473980000000000068e+01 1.006134041772412718e+06
1.478009999999999913e+01 9.730421339027201757e+05
1.482039999999999935e+01 9.438480813173357164e+05
1.486069999999999958e+01 9.224279013802564004e+05
1.490090000000000003e+01 9.086933364167149412e+05
1.494120000000000026e+01 8.978947124037746107e+05
1.498150000000000048e+01 8.849446822600046871e+05
1.502180000000000071e+01 8.693534151400338160e+05
1.506199999999999939e+01 8.544070810996128712e+05
1.510229999999999961e+01 8.412360531393409474e+05
1.514259999999999984e+01 8.280483313408554532e+05
1.518280000000000030e+01 8.140871172335104784e+05
1.522310000000000052e+01 7.998694851837229216e+05
1.526340000000000074e+01 7.839386481316060526e+05
1.530369999999999919e+01 7.647395047728233039e+05
1.534389999999999965e+01 7.428072756860270165e+05
1.538419999999999987e+01 7.206356724136943230e+05
1.542450000000000010e+01 7.001055980736274505e+05
1.546480000000000032e+01 6.816775548417432001e+05
1.550500000000000078e+01 6.646111313749972032e+05
1.554529999999999923e+01 6.483671786589438561e+05
1.558559999999999945e+01 6.319709268017258728e+05
1.562579999999999991e+01 6.154588091060888255e+05
1.566610000000000014e+01 6.011404953005599091e+05
1.570640000000000036e+01 5.904681144198855618e+05
1.574670000000000059e+01 5.831387639595416840e+05
1.578689999999999927e+01 5.775912595434612595e+05
1.582719999999999949e+01 5.720816023864205927e+05
1.586749999999999972e+01 5.651825753628755920e+05
1.590779999999999994e+01 5.558211077460697852e+05
1.594800000000000040e+01 5.442543829933295492e+05
1.598830000000000062e+01 5.323600485544290859e+05
1.602860000000000085e+01 5.230409668382919044e+05
