# energy(eV) alpha
0.000000000000000000e+00 0.000000000000000000e+00
3.769999999999999740e-02 2.068437104376389968e+01
7.549999999999999767e-02 8.408731386784658923e+01
1.131999999999999951e-01 1.940845367628870122e+02
1.509000000000000064e-01 3.582619656296976132e+02
1.885999999999999899e-01 5.884247424969676104e+02
2.263999999999999901e-01 9.037769829763085454e+02
2.641000000000000014e-01 1.333048131335636526e+03
3.018000000000000127e-01 1.923051637057372545e+03
3.395000000000000240e-01 2.749894153022212777e+03
3.773000000000000242e-01 3.942404328797971175e+03
4.149999999999999800e-01 5.719821638335413809e+03
4.526999999999999913e-01 8.460597748534641141e+03
4.904000000000000026e-01 1.274070220867978242e+04
5.282000000000000028e-01 1.904782809049486605e+04
5.658999999999999586e-01 2.661258762624971860e+04
6.036000000000000254e-01 3.286966951051865908e+04
6.412999999999999812e-01 3.560170472784584854e+04
6.791000000000000369e-01 3.415814337129308115e+04
7.167999999999999927e-01 2.945873619179276648e+04
7.544999999999999485e-01 2.427875939450828446e+04
7.922000000000000153e-01 2.070341488428639423e+04
8.299999999999999600e-01 1.905839070525266652e+04
8.677000000000000268e-01 1.913594959879124508e+04
9.053999999999999826e-01 2.090406596044686739e+04
9.431000000000000494e-01 2.470239233587773924e+04
9.808999999999999941e-01 3.135687586464125707e+04
1.018599999999999950e+00 4.217030159825210285e+04
1.056300000000000017e+00 5.799964353776255302e+04
1.094100000000000072e+00 7.616743512846391241e+04
1.131799999999999917e+00 8.934012698040014948e+04
1.169499999999999984e+00 9.136995253887285071e+04
1.207200000000000051e+00 8.195593149623800127e+04
1.245000000000000107e+00 6.775424319542782905e+04
1.282699999999999951e+00 5.616949117990883678e+04
1.320400000000000018e+00 4.983034976910353726e+04
1.358100000000000085e+00 4.857024839362555213e+04
1.395899999999999919e+00 5.221025279549531842e+04
1.433599999999999985e+00 6.136746555072991032e+04
1.471300000000000052e+00 7.696414006421568047e+04
1.508999999999999897e+00 9.801286287845404877e+04
1.546799999999999953e+00 1.201850009779533284e+05
1.584500000000000020e+00 1.380649958951457811e+05
1.622200000000000086e+00 1.469143328446644591e+05
1.659899999999999931e+00 1.449394396519426955e+05
1.697699999999999987e+00 1.346739935880654084e+05
1.735400000000000054e+00 1.202069524970446364e+05
1.773099999999999898e+00 1.076351057662949606e+05
1.810799999999999965e+00 1.028624932021757704e+05
1.848600000000000021e+00 1.087823705380616739e+05
1.886300000000000088e+00 1.263724166760557273e+05
1.923999999999999932e+00 1.543581272468597454e+05
1.961699999999999999e+00 1.887246004248596728e+05
1.999500000000000055e+00 2.242347968648705282e+05
2.037199999999999900e+00 2.516688614878691151e+05
2.074899999999999967e+00 2.613238611315653543e+05
2.112600000000000033e+00 2.519150491182910628e+05
2.150399999999999867e+00 2.292368153231204778e+05
2.188099999999999934e+00 2.045269286783643765e+05
2.225800000000000001e+00 1.893014392706211074e+05
2.263599999999999834e+00 1.905225884040624951e+05
2.301299999999999901e+00 2.079103483530060039e+05
2.338999999999999968e+00 2.331748891104790091e+05
2.376700000000000035e+00 2.587029809766080289e+05
2.414499999999999869e+00 2.819421081306081614e+05
2.452199999999999935e+00 2.953826689510993310e+05
2.489900000000000002e+00 2.973700299437740468e+05
2.527600000000000069e+00 2.938594440228209714e+05
2.565399999999999903e+00 2.842047899173840415e+05
2.603099999999999969e+00 2.616911211417270533e+05
2.640800000000000036e+00 2.299418441883681808e+05
2.678500000000000103e+00 2.026031091859980370e+05
2.716299999999999937e+00 1.891212216496901237e+05
2.754000000000000004e+00 1.918858965633294720e+05
2.791700000000000070e+00 2.100718803945927648e+05
2.829400000000000137e+00 2.420408662946099066e+05
2.867199999999999971e+00 2.831882904378842213e+05
2.904900000000000038e+00 3.192195620270905201e+05
2.942600000000000104e+00 3.390067848648491781e+05
2.980300000000000171e+00 3.482660848117063288e+05
3.018100000000000005e+00 3.521811562246677349e+05
3.055800000000000072e+00 3.475798690595057560e+05
3.093500000000000139e+00 3.401724920217407634e+05
3.131200000000000205e+00 3.366908278207073454e+05
3.169000000000000039e+00 3.364141367524296511e+05
3.206700000000000106e+00 3.392147910653111758e+05
3.244400000000000173e+00 3.453767624408821575e+05
3.282200000000000006e+00 3.540238423057059990e+05
3.319900000000000073e+00 3.649111301187196514e+05
3.357600000000000140e+00 3.754834869218163076e+05
3.395300000000000207e+00 3.823688124108531629e+05
3.433100000000000041e+00 3.847674706762123387e+05
3.470800000000000107e+00 3.838453073624236276e+05
3.508500000000000174e+00 3.785223504963316373e+05
3.546199999999999797e+00 3.626074528101259493e+05
3.584000000000000075e+00 3.364503921559465234e+05
3.621700000000000141e+00 3.077093557958168094e+05
3.659400000000000208e+00 2.824698655627676053e+05
3.697099999999999831e+00 2.676396483629363938e+05
3.734900000000000109e+00 2.696831308611585991e+05
3.772600000000000176e+00 2.901389999816868221e+05
3.810299999999999798e+00 3.213654776341301040e+05
3.847999999999999865e+00 3.506215070471049985e+05
3.885800000000000143e+00 3.721837990668927669e+05
3.923500000000000210e+00 3.818135914710407960e+05
3.961199999999999832e+00 3.794908561554790940e+05
3.998899999999999899e+00 3.709593609335098881e+05
4.036699999999999733e+00 3.651022964694505208e+05
4.074399999999999800e+00 3.704353146512731910e+05
4.112099999999999866e+00 3.901321870687203482e+05
4.149799999999999933e+00 4.190850362335928949e+05
4.187599999999999767e+00 4.496061010720180930e+05
4.225299999999999834e+00 4.770917982021389762e+05
4.262999999999999901e+00 5.003036387320932117e+05
4.300799999999999734e+00 5.184213032289287075e+05
4.338499999999999801e+00 5.298454680813609157e+05
4.376199999999999868e+00 5.321774019573903643e+05
4.413899999999999935e+00 5.234972623701936682e+05
4.451699999999999768e+00 5.024785540343334433e+05
4.489399999999999835e+00 4.706155385654085549e+05
4.527099999999999902e+00 4.322803432440889883e+05
4.564799999999999969e+00 3.943110840925198863e+05
4.602599999999999802e+00 3.641575545227982220e+05
4.640299999999999869e+00 3.440337081770623336e+05
4.677999999999999936e+00 3.313933808803124120e+05
4.715700000000000003e+00 3.268396183314968366e+05
4.753499999999999837e+00 3.332388552826245432e+05
4.791199999999999903e+00 3.514701513960011071e+05
4.828899999999999970e+00 3.783645838573481306e+05
4.866600000000000037e+00 4.068907179759891587e+05
4.904399999999999871e+00 4.295002389786089770e+05
4.942099999999999937e+00 4.404503398541226634e+05
4.979800000000000004e+00 4.400626662726260256e+05
5.017500000000000071e+00 4.353320997877250775e+05
5.055299999999999905e+00 4.334412285191990086e+05
5.092999999999999972e+00 4.365126679248822038e+05
5.130700000000000038e+00 4.421174302771053044e+05
5.168400000000000105e+00 4.477372979273091187e+05
5.206199999999999939e+00 4.524006151638037409e+05
5.243900000000000006e+00 4.566181280677906470e+05
5.281600000000000072e+00 4.614007317799854791e+05
5.319300000000000139e+00 4.686700694805572857e+05
5.357099999999999973e+00 4.809470594323981204e+05
5.394800000000000040e+00 4.983666381145253545e+05
5.432500000000000107e+00 5.155642171620512963e+05
5.470299999999999940e+00 5.262445948973695049e+05
5.508000000000000007e+00 5.273111002460593591e+05
5.545700000000000074e+00 5.190691858605323941e+05
5.583400000000000141e+00 5.045749004739909433e+05
5.621199999999999974e+00 4.870683817811242188e+05
5.658900000000000041e+00 4.689605346107834484e+05
5.696600000000000108e+00 4.529023701825987082e+05
5.734300000000000175e+00 4.404218327465966577e+05
5.772100000000000009e+00 4.300361228062381851e+05
5.809800000000000075e+00 4.177292318254929851e+05
5.847500000000000142e+00 4.029380041701085283e+05
5.885200000000000209e+00 3.899805176201073918e+05
5.923000000000000043e+00 3.818328878102530143e+05
5.960700000000000109e+00 3.783049009346764069e+05
5.998400000000000176e+00 3.781019148423681036e+05
6.036100000000000243e+00 3.793466722175283358e+05
6.073900000000000077e+00 3.784424897233089432e+05
6.111600000000000144e+00 3.735246067781878519e+05
6.149300000000000210e+00 3.656249936534195440e+05
6.187000000000000277e+00 3.560537246944879298e+05
6.224800000000000111e+00 3.473436379814023385e+05
6.262500000000000178e+00 3.422994901775734616e+05
6.300200000000000244e+00 3.418690981870938558e+05
6.337900000000000311e+00 3.453132791562773054e+05
6.375700000000000145e+00 3.499171910810075351e+05
6.413400000000000212e+00 3.529759065871708444e+05
6.451100000000000279e+00 3.541649094014796428e+05
6.488900000000000112e+00 3.556202314525821712e+05
6.526600000000000179e+00 3.598124469911680208e+05
6.564300000000000246e+00 3.671034130362413125e+05
6.602000000000000313e+00 3.760441664056983427e+05
6.639800000000000146e+00 3.857102019824110903e+05
6.677500000000000213e+00 3.959575163671801565e+05
6.715200000000000280e+00 4.069449563336110441e+05
6.752900000000000347e+00 4.200729877933364478e+05
6.790700000000000180e+00 4.368466569838226424e+05
6.828400000000000247e+00 4.567599987784014083e+05
6.866100000000000314e+00 4.760247991328041535e+05
6.903800000000000381e+00 4.914162730129369302e+05
6.941600000000000215e+00 5.039098816090966575e+05
6.979300000000000281e+00 5.162304833358097239e+05
7.017000000000000348e+00 5.320953139149033232e+05
7.054700000000000415e+00 5.543474893696347717e+05
7.092500000000000249e+00 5.821791882813927950e+05
7.130200000000000315e+00 6.125177000971306115e+05
7.167900000000000382e+00 6.433772637644158676e+05
7.205599999999999561e+00 6.736525385595507687e+05
7.243400000000000283e+00 7.011042590612178901e+05
7.281100000000000350e+00 7.238298993799700402e+05
7.318800000000000416e+00 7.437209758548886748e+05
7.356499999999999595e+00 7.642073291722342838e+05
7.394300000000000317e+00 7.853734992151091574e+05
7.432000000000000384e+00 8.066494415659379447e+05
7.469699999999999562e+00 8.268829189157310175e+05
7.507500000000000284e+00 8.423100058742202818e+05
7.545200000000000351e+00 8.508392443508560536e+05
7.582900000000000418e+00 8.531681591433109716e+05
7.620599999999999596e+00 8.505300084997162921e+05
7.658400000000000318e+00 8.469021072466399055e+05
7.696100000000000385e+00 8.454217329575587064e+05
7.733799999999999564e+00 8.453313892461102223e+05
7.771499999999999631e+00 8.448916315525295213e+05
7.809300000000000352e+00 8.419781763847233960e+05
7.847000000000000419e+00 8.341165242790944176e+05
7.884699999999999598e+00 8.212972400190553162e+05
7.922399999999999665e+00 8.052476679987570969e+05
7.960200000000000387e+00 7.879599705587051576e+05
7.997899999999999565e+00 7.718874359852483030e+05
8.035600000000000520e+00 7.580417642392467242e+05
8.073299999999999699e+00 7.466222419908995507e+05
8.111100000000000421e+00 7.382873302012630738e+05
8.148799999999999599e+00 7.326400739740264835e+05
8.186500000000000554e+00 7.278500393275498645e+05
8.224199999999999733e+00 7.224246457744947402e+05
8.262000000000000455e+00 7.185414955913762096e+05
8.299699999999999633e+00 7.206561880285193911e+05
8.337400000000000588e+00 7.310545493844804587e+05
8.375099999999999767e+00 7.489271008661990054e+05
8.412900000000000489e+00 7.716390376911119092e+05
8.450599999999999667e+00 7.954433582353397505e+05
8.488300000000000622e+00 8.154682556961170631e+05
8.525999999999999801e+00 8.275564050828134641e+05
8.563800000000000523e+00 8.317980215100600617e+05
8.601499999999999702e+00 8.329653317984356545e+05
8.639200000000000657e+00 8.355663918027491309e+05
8.676999999999999602e+00 8.414080130335236900e+05
8.714700000000000557e+00 8.495376062062763376e+05
8.752399999999999736e+00 8.565070939560553525e+05
8.790100000000000691e+00 8.583979275036441395e+05
8.827899999999999636e+00 8.525904586544823833e+05
8.865600000000000591e+00 8.390048798707962269e+05
8.903299999999999770e+00 8.202784148726690328e+05
8.941000000000000725e+00 8.004631657497617416e+05
8.978799999999999670e+00 7.845865083902621409e+05
9.016500000000000625e+00 7.761411956052166643e+05
9.054199999999999804e+00 7.762514877140242606e+05
9.091900000000000759e+00 7.832022330340328626e+05
9.129699999999999704e+00 7.933606680782411713e+05
9.167400000000000659e+00 8.048816070083796512e+05
9.205099999999999838e+00 8.172106055396979209e+05
9.242800000000000793e+00 8.268361709847747115e+05
9.280599999999999739e+00 8.294692943923030980e+05
9.318300000000000693e+00 8.220704886087032501e+05
9.355999999999999872e+00 8.036121079883594066e+05
9.393700000000000827e+00 7.786412176426826045e+05
9.431499999999999773e+00 7.555872752340019215e+05
9.469200000000000728e+00 7.410464871013419470e+05
9.506899999999999906e+00 7.372344399732269812e+05
9.544600000000000861e+00 7.427899747755196877e+05
9.582399999999999807e+00 7.549716972662514308e+05
9.620100000000000762e+00 7.709554305786398472e+05
9.657799999999999940e+00 7.891606769637160469e+05
9.695600000000000662e+00 8.080153281673055608e+05
9.733299999999999841e+00 8.274924567104685120e+05
9.771000000000000796e+00 8.503835594627236715e+05
9.808699999999999974e+00 8.742492536894608056e+05
9.846500000000000696e+00 8.942038801026992733e+05
9.884199999999999875e+00 9.112750782870599069e+05
9.921900000000000830e+00 9.284113372924744617e+05
9.959600000000000009e+00 9.474516128395993728e+05
9.997400000000000730e+00 9.708275075597637333e+05
1.003509999999999991e+01 1.002590518838686519e+06
1.007280000000000086e+01 1.041859449139346718e+06
1.011050000000000004e+01 1.082125301466203993e+06
1.014830000000000076e+01 1.115994242834075820e+06
1.018599999999999994e+01 1.136684533698840067e+06
1.022369999999999912e+01 1.141548265848394949e+06
1.026140000000000008e+01 1.134925107014213922e+06
1.029920000000000080e+01 1.124681956844334956e+06
1.033689999999999998e+01 1.116344796646728879e+06
1.037459999999999916e+01 1.109761416056325659e+06
1.041230000000000011e+01 1.103506282824364724e+06
1.045010000000000083e+01 1.100487195670819841e+06
1.048780000000000001e+01 1.101530106090401066e+06
1.052549999999999919e+01 1.103332066100862809e+06
1.056320000000000014e+01 1.103816134457434993e+06
1.060100000000000087e+01 1.101773165608247276e+06
1.063870000000000005e+01 1.095176776728698052e+06
1.067639999999999922e+01 1.085100989038563799e+06
1.071419999999999995e+01 1.075271816353681032e+06
1.075189999999999912e+01 1.068847173006953439e+06
1.078960000000000008e+01 1.067422919474643189e+06
1.082729999999999926e+01 1.070236761391570093e+06
1.086509999999999998e+01 1.073711390272782184e+06
1.090279999999999916e+01 1.074124578743309015e+06
1.094050000000000011e+01 1.068819318935698364e+06
1.097819999999999929e+01 1.058748817958011758e+06
1.101600000000000001e+01 1.047425411397200543e+06
1.105369999999999919e+01 1.036871467237519333e+06
1.109140000000000015e+01 1.026582768236617907e+06
1.112909999999999933e+01 1.013665145129163284e+06
1.116690000000000005e+01 9.978913592869397253e+05
1.120459999999999923e+01 9.852923105241082376e+05
1.124230000000000018e+01 9.807161798869648483e+05
1.127999999999999936e+01 9.818900169125481043e+05
1.131780000000000008e+01 9.811590541197704151e+05
1.135549999999999926e+01 9.727633800304584438e+05
1.139320000000000022e+01 9.604735805270059500e+05
1.143089999999999939e+01 9.524893922199454391e+05
1.146870000000000012e+01 9.524706969723294023e+05
1.150639999999999930e+01 9.597299503069996135e+05
1.154410000000000025e+01 9.729403537988673197e+05
1.158179999999999943e+01 9.875683419607938267e+05
1.161960000000000015e+01 9.951510256311330013e+05
1.165729999999999933e+01 9.892610684424453648e+05
1.169500000000000028e+01 9.722611937571425224e+05
1.173269999999999946e+01 9.545352112379985629e+05
1.177050000000000018e+01 9.447717405387585750e+05
1.180819999999999936e+01 9.421992228023507632e+05
1.184590000000000032e+01 9.413053223423671443e+05
1.188369999999999926e+01 9.395186831051474437e+05
1.192140000000000022e+01 9.371018302239660406e+05
1.195909999999999940e+01 9.356080542031609220e+05
1.199680000000000035e+01 9.354757810010398971e+05
1.203459999999999930e+01 9.349903268279173644e+05
1.207230000000000025e+01 9.328772318719007308e+05
1.210999999999999943e+01 9.285621358392233960e+05
1.214770000000000039e+01 9.209712616406000452e+05
1.218549999999999933e+01 9.095503670707932906e+05
1.222320000000000029e+01 8.936227002225621836e+05
1.226089999999999947e+01 8.712544103643558919e+05
1.229860000000000042e+01 8.432764003603009041e+05
1.233639999999999937e+01 8.161431672354687471e+05
1.237410000000000032e+01 7.956329378383249277e+05
1.241179999999999950e+01 7.813319100337313721e+05
1.244950000000000045e+01 7.699729950972408988e+05
1.248729999999999940e+01 7.586451680796891451e+05
1.252500000000000036e+01 7.465398508335945662e+05
1.256269999999999953e+01 7.339050096703347517e+05
1.260040000000000049e+01 7.210542245133168763e+05
1.263819999999999943e+01 7.099570077327743638e+05
1.267590000000000039e+01 7.018479842586197192e+05
1.271359999999999957e+01 6.949076553830747725e+05
1.275130000000000052e+01 6.852214114762993995e+05
1.278909999999999947e+01 6.707103946149842814e+05
1.282680000000000042e+01 6.527511787515527103e+05
1.286449999999999960e+01 6.357190805274705635e+05
1.290230000000000032e+01 6.240312594867441803e+05
1.293999999999999950e+01 6.174553497635062085e+05
1.297770000000000046e+01 6.131985987693924690e+05
1.301539999999999964e+01 6.118555639452317264e+05
1.305320000000000036e+01 6.159463711607455043e+05
1.309089999999999954e+01 6.240472421373970574e+05
1.312860000000000049e+01 6.321664175393943442e+05
1.316629999999999967e+01 6.399862758764617611e+05
1.320410000000000039e+01 6.503371329230633564e+05
1.324179999999999957e+01 6.642996244978626492e+05
1.327950000000000053e+01 6.796429869831023971e+05
1.331719999999999970e+01 6.947600398864962626e+05
1.335500000000000043e+01 7.103832142605039990e+05
1.339269999999999960e+01 7.253155039347757120e+05
1.343040000000000056e+01 7.372559702491760254e+05
1.346809999999999974e+01 7.459808556933081709e+05
1.350590000000000046e+01 7.545743194500308018e+05
1.354359999999999964e+01 7.647051466960047837e+05
1.358130000000000059e+01 7.732315688848070567e+05
1.361899999999999977e+01 7.768718158671513665e+05
1.365680000000000049e+01 7.773807308621070115e+05
1.369449999999999967e+01 7.788739321013742592e+05
1.373220000000000063e+01 7.820016441318230936e+05
1.376989999999999981e+01 7.860565094038589159e+05
1.380770000000000053e+01 7.918966782869502204e+05
1.384539999999999971e+01 8.001638909379055258e+05
1.388310000000000066e+01 8.096897012187537039e+05
1.392089999999999961e+01 8.183288259455955122e+05
1.395860000000000056e+01 8.243938423873083666e+05
1.399629999999999974e+01 8.289705255121813389e+05
1.403400000000000070e+01 8.344591965503164101e+05
1.407179999999999964e+01 8.409875030884871958e+05
1.410950000000000060e+01 8.462488812409383245e+05
1.414719999999999978e+01 8.494018078019096283e+05
1.418490000000000073e+01 8.489958701489033410e+05
1.422269999999999968e+01 8.453830372957850341e+05
1.426040000000000063e+01 8.440179380682903575e+05
1.429809999999999981e+01 8.492449333897534525e+05
1.433580000000000076e+01 8.577789282863409026e+05
1.437359999999999971e+01 8.631689003248220542e+05
1.441130000000000067e+01 8.618435466991540743e+05
1.444899999999999984e+01 8.517842209979397012e+05
1.448670000000000080e+01 8.327370015797751257e+05
1.452449999999999974e+01 8.067954306575998198e+05
1.456220000000000070e+01 7.789731265127942897e+05
1.459989999999999988e+01 7.581065492176152766e+05
1.463760000000000083e+01 7.491360270121392095e+05
1.467539999999999978e+01 7.466789737151395530e+05
1.471310000000000073e+01 7.410156177474362776e+05
1.475079999999999991e+01 7.258922100457100896e+05
1.478850000000000087e+01 7.032483501777121564e+05
1.482629999999999981e+01 6.797302884207540192e+05
1.486400000000000077e+01 6.602243970366143622e+05
1.490169999999999995e+01 6.470636726455432363e+05
1.493939999999999912e+01 6.402699462560811080e+05
1.497719999999999985e+01 6.366298421286920784e+05
1.501490000000000080e+01 6.324452572312795091e+05
