# energy(eV) alpha
0.000000000000000000e+00 0.000000000000000000e+00
4.689999999999999725e-02 4.144890692811296629e-01
9.379999999999999449e-02 1.657900248290376188e+00
1.406999999999999917e-01 3.315613767089689023e+00
1.875999999999999890e-01 6.078146049031266429e+00
2.344999999999999862e-01 9.668797905159403072e+00
2.813999999999999835e-01 1.408715451199934598e+01
3.282999999999999807e-01 1.933237257712967860e+01
3.751999999999999780e-01 2.540411627976289921e+01
4.220999999999999752e-01 3.147299553587976462e+01
4.689999999999999725e-01 3.864279191710159012e+01
5.159000000000000252e-01 4.705029553902828354e+01
5.627999999999999670e-01 5.628024069754328451e+01
6.097000000000000197e-01 6.633137124972643051e+01
6.565999999999999615e-01 7.720232295800560962e+01
7.035000000000000142e-01 8.889162417516369885e+01
7.503999999999999559e-01 1.013971287741741492e+02
7.973000000000000087e-01 1.147182140435411810e+02
8.441999999999999504e-01 1.288511517661367520e+02
8.911000000000000032e-01 1.437959611987069479e+02
9.379999999999999449e-01 1.595499908406564487e+02
9.848999999999999977e-01 1.770724964826918892e+02
1.031800000000000050e+00 1.964958614885251791e+02
1.078699999999999992e+00 2.147974958815317450e+02
1.125599999999999934e+00 2.338973551841774565e+02
1.172500000000000098e+00 2.560804079188836226e+02
1.219400000000000039e+00 2.780479057767004178e+02
1.266299999999999981e+00 2.996614229133436424e+02
1.313199999999999923e+00 3.258950008464717598e+02
1.360100000000000087e+00 3.492133790851905246e+02
1.407000000000000028e+00 3.774111695287927546e+02
1.453899999999999970e+00 4.052418825647299627e+02
1.500799999999999912e+00 4.325608552308727894e+02
1.547800000000000065e+00 4.637721405521851352e+02
1.594700000000000006e+00 4.959809341258884388e+02
1.641599999999999948e+00 5.292104995295416074e+02
1.688499999999999890e+00 5.634551113594178560e+02
1.735400000000000054e+00 5.987121467683105038e+02
1.782299999999999995e+00 6.349692178316010995e+02
1.829199999999999937e+00 6.739948830379543097e+02
1.876100000000000101e+00 7.140910804130937777e+02
1.923000000000000043e+00 7.552577887940188930e+02
1.969899999999999984e+00 7.993864940803771333e+02
2.016799999999999926e+00 8.446532837040855384e+02
2.063699999999999868e+00 8.930344981423120316e+02
2.110599999999999810e+00 9.405995441131668713e+02
2.157500000000000195e+00 9.934020242705367991e+02
2.204400000000000137e+00 1.045374347577136632e+03
2.251300000000000079e+00 1.100662460389923581e+03
2.298200000000000021e+00 1.159392811523960972e+03
2.345099999999999962e+00 1.217213124328060985e+03
2.391999999999999904e+00 1.280805365021476518e+03
2.438899999999999846e+00 1.345758860282252954e+03
2.485799999999999788e+00 1.412087911789742066e+03
2.532700000000000173e+00 1.484538656518725929e+03
2.579600000000000115e+00 1.556045720039080379e+03
2.626500000000000057e+00 1.633902005077424292e+03
2.673399999999999999e+00 1.713275857293603849e+03
2.720299999999999940e+00 1.796716032937297996e+03
2.767199999999999882e+00 1.884322457187166719e+03
2.814099999999999824e+00 1.973554851991288842e+03
2.861000000000000210e+00 2.069715460352022092e+03
2.907900000000000151e+00 2.167612387221768131e+03
2.954800000000000093e+00 2.272697479104653212e+03
3.001700000000000035e+00 2.379586386066147497e+03
3.048599999999999977e+00 2.496754154431118877e+03
3.095499999999999918e+00 2.615852868242035584e+03
3.142399999999999860e+00 2.742696155167082452e+03
3.189299999999999802e+00 2.874515028978607461e+03
3.236200000000000188e+00 3.011351653659344720e+03
3.283100000000000129e+00 3.156255319688594682e+03
3.330000000000000071e+00 3.312458423189775658e+03
3.376900000000000013e+00 3.477127233149215954e+03
3.423799999999999955e+00 3.647260828983276497e+03
3.470699999999999896e+00 3.829209140118566211e+03
3.517599999999999838e+00 4.026362767142697976e+03
3.564499999999999780e+00 4.232627182608469411e+03
3.611400000000000166e+00 4.451251347144686406e+03
3.658300000000000107e+00 4.682452853061025962e+03
3.705200000000000049e+00 4.939689236283064020e+03
3.752099999999999991e+00 5.206623825785281952e+03
3.798999999999999932e+00 5.503628133318361506e+03
3.845899999999999874e+00 5.817466619595841621e+03
3.892799999999999816e+00 6.165500554631655177e+03
3.939700000000000202e+00 6.548193782875320721e+03
3.986600000000000144e+00 6.972897605335529988e+03
4.033500000000000085e+00 7.450679943334353084e+03
4.080400000000000027e+00 7.999812253521503408e+03
4.127299999999999969e+00 8.635390757097989990e+03
4.174199999999999910e+00 9.369248950423017959e+03
4.221099999999999852e+00 1.022367105293124769e+04
4.267999999999999794e+00 1.127210612957431658e+04
4.314899999999999736e+00 1.257483222051624580e+04
4.361799999999999677e+00 1.424029785375467327e+04
4.408699999999999619e+00 1.643141675554403992e+04
4.455599999999999561e+00 1.919147680346978450e+04
4.502500000000000391e+00 2.226876823542322018e+04
4.549500000000000099e+00 2.561473926942469188e+04
4.596400000000000041e+00 2.980900654096955986e+04
4.643299999999999983e+00 3.550837378847932996e+04
4.690199999999999925e+00 4.161804244848064991e+04
4.737099999999999866e+00 4.667232840772595227e+04
4.783999999999999808e+00 5.176291290190311702e+04
4.830899999999999750e+00 5.822087119661223551e+04
4.877799999999999692e+00 6.384430020379213965e+04
4.924699999999999633e+00 6.757467060911620501e+04
4.971599999999999575e+00 7.082452622077956039e+04
5.018500000000000405e+00 7.405907301500753965e+04
5.065400000000000347e+00 7.703809866045672970e+04
5.112300000000000288e+00 8.080844288067852904e+04
5.159200000000000230e+00 8.617805613310211629e+04
5.206100000000000172e+00 9.396575045271556883e+04
5.253000000000000114e+00 1.046772474320748297e+05
5.299900000000000055e+00 1.176439892719273776e+05
5.346799999999999997e+00 1.317586452073123946e+05
5.393699999999999939e+00 1.459552369170547754e+05
5.440599999999999881e+00 1.594982746783790644e+05
5.487499999999999822e+00 1.731501611073856475e+05
5.534399999999999764e+00 1.898935713278506591e+05
5.581299999999999706e+00 2.119350014451315510e+05
5.628199999999999648e+00 2.393107300783072715e+05
5.675099999999999589e+00 2.714090300727552967e+05
5.722000000000000419e+00 3.048837453628242365e+05
5.768900000000000361e+00 3.360963095748203923e+05
5.815800000000000303e+00 3.665497913702364895e+05
5.862700000000000244e+00 3.949721201440274017e+05
5.909600000000000186e+00 4.154869573460211977e+05
5.956500000000000128e+00 4.293520205914822291e+05
6.003400000000000070e+00 4.392276793275414966e+05
6.050300000000000011e+00 4.477268949716357165e+05
6.097199999999999953e+00 4.606068518512977753e+05
6.144099999999999895e+00 4.796040984952478320e+05
6.190999999999999837e+00 5.007357832703617169e+05
6.237899999999999778e+00 5.211142639815493603e+05
6.284799999999999720e+00 5.400090802173850825e+05
6.331699999999999662e+00 5.563863539643624099e+05
6.378599999999999604e+00 5.702155134026731830e+05
6.425500000000000433e+00 5.827860841563533759e+05
6.472400000000000375e+00 5.936730867574306903e+05
6.519300000000000317e+00 6.034556716803214513e+05
6.566200000000000259e+00 6.123331834534892114e+05
6.613100000000000200e+00 6.197707467123578535e+05
6.660000000000000142e+00 6.262967930536868516e+05
6.706900000000000084e+00 6.329718979210583493e+05
6.753800000000000026e+00 6.379975945945662679e+05
6.800699999999999967e+00 6.385761695352622773e+05
6.847599999999999909e+00 6.371136468313196674e+05
6.894499999999999851e+00 6.385619744419174967e+05
6.941399999999999793e+00 6.402110057221106254e+05
6.988299999999999734e+00 6.401663208767391043e+05
7.035199999999999676e+00 6.430515193459128495e+05
7.082099999999999618e+00 6.506092306854298804e+05
7.128999999999999559e+00 6.600019619622905739e+05
7.175900000000000389e+00 6.692654999665354844e+05
7.222800000000000331e+00 6.771600582547001541e+05
7.269700000000000273e+00 6.851418255593007198e+05
7.316600000000000215e+00 6.974469362626502989e+05
7.363500000000000156e+00 7.157747606674240669e+05
7.410400000000000098e+00 7.381506412716920022e+05
7.457300000000000040e+00 7.589148858589447336e+05
7.504199999999999982e+00 7.766830981951474678e+05
7.551099999999999923e+00 7.935561860699479003e+05
7.598099999999999632e+00 8.102201936907662312e+05
7.644999999999999574e+00 8.257612585366347339e+05
7.691900000000000404e+00 8.378700155117809772e+05
7.738800000000000345e+00 8.423591559532668907e+05
7.785700000000000287e+00 8.398368681294226553e+05
7.832600000000000229e+00 8.352899272765632486e+05
7.879500000000000171e+00 8.334985589111628942e+05
7.926400000000000112e+00 8.381698543390335981e+05
7.973300000000000054e+00 8.496192882008521119e+05
8.020200000000000884e+00 8.639147404260342009e+05
8.067099999999999937e+00 8.787559940808351384e+05
8.114000000000000767e+00 8.963252143046833808e+05
8.160899999999999821e+00 9.135257908218894154e+05
8.207800000000000651e+00 9.230849897621223936e+05
8.254699999999999704e+00 9.231218168043888872e+05
8.301600000000000534e+00 9.179895108520671492e+05
8.348499999999999588e+00 9.103642077897273703e+05
8.395400000000000418e+00 8.987389788000856061e+05
8.442299999999999471e+00 8.848538098507359391e+05
8.489200000000000301e+00 8.749159946961734677e+05
8.536099999999999355e+00 8.732534652679510182e+05
8.583000000000000185e+00 8.772480706895707408e+05
8.629899999999999238e+00 8.826355105917237233e+05
8.676800000000000068e+00 8.905136959521000972e+05
8.723699999999999122e+00 9.022802052099111024e+05
8.770599999999999952e+00 9.168443105135461083e+05
8.817500000000000782e+00 9.319747512717514765e+05
8.864399999999999835e+00 9.473515986492066877e+05
8.911300000000000665e+00 9.614422651368645020e+05
8.958199999999999719e+00 9.703220445485649398e+05
9.005100000000000549e+00 9.726443779683647444e+05
9.051999999999999602e+00 9.712023494546923321e+05
9.098900000000000432e+00 9.684297305934878532e+05
9.145799999999999486e+00 9.616695077488906682e+05
9.192700000000000315e+00 9.508382025397620164e+05
9.239599999999999369e+00 9.393245824260266963e+05
9.286500000000000199e+00 9.271764812209598022e+05
9.333399999999999253e+00 9.155481798065138282e+05
9.380300000000000082e+00 9.063309492733509978e+05
9.427199999999999136e+00 8.969943715379635105e+05
9.474099999999999966e+00 8.869218017029194161e+05
9.521000000000000796e+00 8.777997495638624532e+05
9.567899999999999849e+00 8.669028369868221926e+05
9.614800000000000679e+00 8.516650409955912037e+05
9.661699999999999733e+00 8.327666785920414841e+05
9.708600000000000563e+00 8.142122770431552781e+05
9.755499999999999616e+00 8.003935534068205161e+05
9.802400000000000446e+00 7.948600505623022327e+05
9.849299999999999500e+00 7.928705414541714126e+05
9.896200000000000330e+00 7.867906986232525669e+05
9.943099999999999383e+00 7.755577655734545551e+05
9.990000000000000213e+00 7.615707461754786782e+05
1.003689999999999927e+01 7.472296968124093255e+05
1.008380000000000010e+01 7.354680754163692473e+05
1.013069999999999915e+01 7.264506315247580642e+05
1.017759999999999998e+01 7.163059887125282548e+05
1.022450000000000081e+01 6.999916432268149219e+05
1.027139999999999986e+01 6.792602950321651297e+05
1.031830000000000069e+01 6.635698269557737513e+05
1.036519999999999975e+01 6.574146385084209032e+05
1.041210000000000058e+01 6.561487607602212811e+05
1.045899999999999963e+01 6.588143111516493373e+05
1.050590000000000046e+01 6.684351561029524310e+05
1.055279999999999951e+01 6.839581446301749675e+05
1.059980000000000011e+01 7.034271896845403826e+05
1.064669999999999916e+01 7.272589645203320542e+05
1.069359999999999999e+01 7.541526918265999993e+05
1.074050000000000082e+01 7.790773255282117752e+05
1.078739999999999988e+01 7.984427045285722706e+05
1.083430000000000071e+01 8.120699460252725985e+05
1.088119999999999976e+01 8.214506056536769029e+05
1.092810000000000059e+01 8.305408786248489050e+05
1.097499999999999964e+01 8.424709834509718930e+05
1.102190000000000047e+01 8.576606821832434507e+05
1.106879999999999953e+01 8.731898837701261509e+05
1.111570000000000036e+01 8.877613992233175086e+05
1.116259999999999941e+01 9.006374818352571456e+05
1.120950000000000024e+01 9.082468052145543043e+05
1.125639999999999930e+01 9.100873120708218776e+05
1.130330000000000013e+01 9.076011043496758211e+05
1.135019999999999918e+01 9.025055581311886199e+05
1.139710000000000001e+01 8.964046967132763239e+05
1.144400000000000084e+01 8.922886033916723682e+05
1.149089999999999989e+01 8.903939216634302866e+05
1.153780000000000072e+01 8.852097224071373930e+05
1.158469999999999978e+01 8.749181239225077443e+05
1.163160000000000061e+01 8.652564114935965044e+05
1.167849999999999966e+01 8.624035666825082153e+05
1.172540000000000049e+01 8.649494875171884196e+05
1.177229999999999954e+01 8.678834516890624072e+05
1.181920000000000037e+01 8.692737305219019763e+05
1.186609999999999943e+01 8.688052490665892838e+05
1.191300000000000026e+01 8.659690680403766455e+05
1.195989999999999931e+01 8.622333381169585045e+05
1.200680000000000014e+01 8.592037087774839019e+05
1.205369999999999919e+01 8.556628833822525339e+05
1.210060000000000002e+01 8.513428085924015613e+05
1.214750000000000085e+01 8.489057894281849731e+05
1.219439999999999991e+01 8.505123598202599678e+05
1.224130000000000074e+01 8.557751654528675135e+05
1.228819999999999979e+01 8.646104746685299324e+05
1.233510000000000062e+01 8.778962132425851887e+05
1.238199999999999967e+01 8.925926119433526183e+05
1.242890000000000050e+01 9.098890526418238878e+05
1.247579999999999956e+01 9.316954894394432195e+05
1.252270000000000039e+01 9.549583530635446077e+05
1.256959999999999944e+01 9.764311045747530879e+05
1.261650000000000027e+01 9.925439893801073777e+05
1.266339999999999932e+01 1.000502245394296246e+06
1.271030000000000015e+01 1.002944820947619621e+06
1.275719999999999921e+01 1.001371366704200860e+06
1.280410000000000004e+01 9.944987630814926233e+05
1.285100000000000087e+01 9.811859746029551607e+05
1.289789999999999992e+01 9.681504564995482797e+05
1.294480000000000075e+01 9.611788102782461792e+05
1.299169999999999980e+01 9.586199769829843426e+05
1.303860000000000063e+01 9.550220215450539254e+05
1.308549999999999969e+01 9.514562294476946117e+05
1.313240000000000052e+01 9.497115094844613923e+05
1.317929999999999957e+01 9.468139143170288298e+05
1.322620000000000040e+01 9.402066215528316097e+05
1.327309999999999945e+01 9.313493872951441444e+05
1.332000000000000028e+01 9.182407934841095703e+05
1.336689999999999934e+01 8.996756225299641956e+05
1.341380000000000017e+01 8.818876442316370085e+05
1.346069999999999922e+01 8.644654869230898330e+05
1.350760000000000005e+01 8.463100466247965815e+05
1.355450000000000088e+01 8.306715196203928208e+05
1.360149999999999970e+01 8.208590731080180267e+05
1.364840000000000053e+01 8.167368715259506134e+05
1.369529999999999959e+01 8.186937597341655055e+05
1.374220000000000041e+01 8.291103435789761133e+05
1.378909999999999947e+01 8.481138400836631190e+05
1.383600000000000030e+01 8.751221579523090040e+05
1.388289999999999935e+01 9.083038275801795535e+05
1.392980000000000018e+01 9.414318626667677891e+05
1.397669999999999924e+01 9.727480553125799634e+05
1.402360000000000007e+01 1.002277832286090008e+06
1.407049999999999912e+01 1.027910758679982973e+06
1.411739999999999995e+01 1.048584709456255194e+06
1.416430000000000078e+01 1.066442317269719206e+06
1.421119999999999983e+01 1.082858850525265327e+06
1.425810000000000066e+01 1.100346401451988146e+06
1.430499999999999972e+01 1.116450080596321262e+06
1.435190000000000055e+01 1.123691207797209034e+06
1.439879999999999960e+01 1.123545902424785541e+06
1.444570000000000043e+01 1.123070274464439834e+06
1.449259999999999948e+01 1.127455115744494367e+06
1.453950000000000031e+01 1.135881757710244041e+06
1.458639999999999937e+01 1.142711551817051833e+06
1.463330000000000020e+01 1.144166758269729791e+06
1.468019999999999925e+01 1.138509247760657920e+06
1.472710000000000008e+01 1.129660269658589736e+06
1.477399999999999913e+01 1.121492121103315614e+06
1.482089999999999996e+01 1.110771613977036672e+06
1.486780000000000079e+01 1.098579856097438373e+06
1.491469999999999985e+01 1.089698927900214214e+06
1.496160000000000068e+01 1.080943304846803425e+06
1.500849999999999973e+01 1.067245721069189487e+06
1.505540000000000056e+01 1.050944203579996480e+06
1.510229999999999961e+01 1.035168525692124735e+06
1.514920000000000044e+01 1.021467250400352525e+06
1.519609999999999950e+01 1.009748174977219664e+06
1.524300000000000033e+01 9.967779046571793733e+05
1.528989999999999938e+01 9.832363167828907026e+05
1.533680000000000021e+01 9.706988941510152072e+05
1.538369999999999926e+01 9.565412595371577190e+05
1.543060000000000009e+01 9.379566581804517191e+05
1.547749999999999915e+01 9.148506223516032333e+05
1.552439999999999998e+01 8.884790285395039245e+05
1.557130000000000081e+01 8.623533747960465262e+05
1.561819999999999986e+01 8.396488454821095802e+05
1.566510000000000069e+01 8.175622894270102261e+05
1.571199999999999974e+01 7.931446759682835545e+05
1.575890000000000057e+01 7.668075461289583473e+05
1.580579999999999963e+01 7.434681991150364047e+05
1.585270000000000046e+01 7.279112655740686459e+05
1.589959999999999951e+01 7.183652750572653022e+05
1.594650000000000034e+01 7.090864072576586623e+05
1.599339999999999939e+01 6.973330135647351854e+05
1.604029999999999845e+01 6.828393791246870533e+05
1.608719999999999928e+01 6.661710121305790963e+05
1.613410000000000011e+01 6.492330478240678785e+05
1.618100000000000094e+01 6.348656700060964795e+05
1.622790000000000177e+01 6.228092263858255465e+05
1.627479999999999905e+01 6.107135882231293945e+05
1.632169999999999987e+01 5.976042183957909001e+05
1.636860000000000070e+01 5.831457719365173252e+05
1.641550000000000153e+01 5.679245422462159768e+05
1.646239999999999881e+01 5.525896830982252723e+05
1.650929999999999964e+01 5.397814426733632572e+05
1.655620000000000047e+01 5.338847097011327278e+05
1.660310000000000130e+01 5.349106534189473605e+05
1.665009999999999835e+01 5.390881801239961060e+05
1.669699999999999918e+01 5.422796176675135503e+05
1.674390000000000001e+01 5.427729011170557933e+05
1.679080000000000084e+01 5.471825306194853038e+05
1.683770000000000167e+01 5.587838911003709072e+05
1.688459999999999894e+01 5.716735659953661961e+05
1.693149999999999977e+01 5.800707717736224877e+05
1.697840000000000060e+01 5.797853100784450071e+05
1.702530000000000143e+01 5.708617351079472573e+05
1.707219999999999871e+01 5.594366331512470497e+05
1.711909999999999954e+01 5.492309904107121984e+05
1.716600000000000037e+01 5.433643905623739120e+05
1.721290000000000120e+01 5.411072302942229435e+05
1.725979999999999848e+01 5.392071088139892090e+05
1.730669999999999931e+01 5.346067985504112439e+05
1.735360000000000014e+01 5.275377003067210317e+05
1.740050000000000097e+01 5.221818027026326163e+05
1.744739999999999824e+01 5.239246551185464486e+05
1.749429999999999907e+01 5.312795018797187367e+05
1.754119999999999990e+01 5.383891185249974951e+05
1.758810000000000073e+01 5.441661040267432109e+05
1.763500000000000156e+01 5.486279146030867705e+05
1.768189999999999884e+01 5.528251675476247910e+05
1.772879999999999967e+01 5.599065234777003061e+05
1.777570000000000050e+01 5.712567854413744062e+05
1.782260000000000133e+01 5.830685238809712464e+05
1.786949999999999861e+01 5.900618646163787926e+05
1.791639999999999944e+01 5.906190190196221229e+05
1.796330000000000027e+01 5.851236850771415047e+05
1.801020000000000110e+01 5.757713243454707554e+05
1.805709999999999837e+01 5.655424289254602045e+05
1.810399999999999920e+01 5.569628936592127429e+05
1.815090000000000003e+01 5.527137837191175204e+05
1.819780000000000086e+01 5.555752357847784879e+05
1.824470000000000169e+01 5.669348395343553275e+05
1.829159999999999897e+01 5.834901041738038184e+05
1.833849999999999980e+01 6.020501058220539708e+05
1.838540000000000063e+01 6.208759220321695320e+05
1.843230000000000146e+01 6.360959248119265540e+05
1.847919999999999874e+01 6.478335302056958899e+05
1.852609999999999957e+01 6.519739294575921958e+05
1.857300000000000040e+01 6.480948100371067412e+05
1.861990000000000123e+01 6.419660840242686681e+05
1.866679999999999851e+01 6.406738310482840752e+05
