# energy(eV) alpha
0.000000000000000000e+00 0.000000000000000000e+00
4.769999999999999934e-02 2.848494288716897915e-01
9.529999999999999583e-02 1.422704831139913972e+00
1.429999999999999882e-01 2.988604116121743370e+00
1.905999999999999917e-01 5.121174457166782545e+00
2.383000000000000118e-01 8.299220760768662331e+00
2.859999999999999765e-01 1.195130547420448686e+01
3.336000000000000076e-01 1.626173597863958520e+01
3.812999999999999723e-01 2.123925944787250231e+01
4.289000000000000035e-01 2.687251778826679427e+01
4.766000000000000236e-01 3.317310128181100026e+01
5.242999999999999883e-01 4.013440344616812183e+01
5.718999999999999639e-01 4.831561300935643288e+01
6.196000000000000396e-01 5.664218222532461056e+01
6.672000000000000153e-01 6.495463847855914707e+01
7.148999999999999799e-01 7.525911107264857947e+01
7.625999999999999446e-01 8.555602463880143205e+01
8.102000000000000313e-01 9.730058983562246055e+01
8.578999999999999959e-01 1.089518515272939538e+02
9.054999999999999716e-01 1.221407449703565931e+02
9.532000000000000473e-01 1.360857319644385370e+02
1.000799999999999912e+00 1.497660385475974181e+02
1.048499999999999988e+00 1.651468755989046997e+02
1.096200000000000063e+00 1.812673016625483342e+02
1.143799999999999928e+00 1.969750282685288028e+02
1.191500000000000004e+00 2.156966333229934776e+02
1.239100000000000090e+00 2.352258163471719001e+02
1.286799999999999944e+00 2.530512804807384271e+02
1.334500000000000020e+00 2.728322116036151215e+02
1.382100000000000106e+00 2.946796500283339810e+02
1.429799999999999960e+00 3.173623161437423050e+02
1.477400000000000047e+00 3.408337267927099674e+02
1.525099999999999900e+00 3.651340132980216708e+02
1.572799999999999976e+00 3.886954437002514169e+02
1.620400000000000063e+00 4.145295761859111963e+02
1.668099999999999916e+00 4.428295129445539260e+02
1.715700000000000003e+00 4.719859378769752425e+02
1.763400000000000079e+00 5.003201795023759360e+02
1.811099999999999932e+00 5.312157150013645150e+02
1.858700000000000019e+00 5.629488588431200924e+02
1.906400000000000095e+00 5.955873465378225546e+02
1.953999999999999959e+00 6.309608669022754839e+02
2.001700000000000035e+00 6.634019604085618766e+02
2.049399999999999888e+00 7.026104724069980421e+02
2.096999999999999975e+00 7.428007757564104168e+02
2.144699999999999829e+00 7.819617805501576413e+02
2.192299999999999915e+00 8.198655409806632406e+02
2.240000000000000213e+00 8.629982987320075836e+02
2.287700000000000067e+00 9.093447333960089054e+02
2.335300000000000153e+00 9.567255559343321920e+02
2.383000000000000007e+00 1.002897212203914023e+03
2.430600000000000094e+00 1.052357429383458566e+03
2.478299999999999947e+00 1.105314662162011700e+03
2.525999999999999801e+00 1.156954595658570497e+03
2.573599999999999888e+00 1.214535999494351017e+03
2.621300000000000185e+00 1.273358891263279020e+03
2.668899999999999828e+00 1.333303185679200851e+03
2.716600000000000126e+00 1.394470578645095884e+03
2.764200000000000212e+00 1.459395187716480905e+03
2.811900000000000066e+00 1.525583906253568557e+03
2.859599999999999920e+00 1.598453956999035881e+03
2.907200000000000006e+00 1.667069475690472927e+03
2.954899999999999860e+00 1.742569571516306496e+03
3.002499999999999947e+00 1.822171918556111905e+03
3.050199999999999800e+00 1.903238545400539124e+03
3.097900000000000098e+00 1.991547609064938342e+03
3.145500000000000185e+00 2.081291571827584903e+03
3.193200000000000038e+00 2.172591721863864223e+03
3.240800000000000125e+00 2.268331993243665693e+03
3.288499999999999979e+00 2.368733626871969136e+03
3.336199999999999832e+00 2.473833425873432134e+03
3.383799999999999919e+00 2.586837632704664429e+03
3.431500000000000217e+00 2.701628601514193178e+03
3.479099999999999859e+00 2.821259874656464035e+03
3.526800000000000157e+00 2.949292642897458791e+03
3.574500000000000011e+00 3.082496476960222935e+03
3.622100000000000097e+00 3.220793363604981096e+03
3.669799999999999951e+00 3.364474825972349663e+03
3.717400000000000038e+00 3.520286932326317128e+03
3.765099999999999891e+00 3.685165472533969933e+03
3.812800000000000189e+00 3.855706691856535144e+03
3.860399999999999832e+00 4.035322845107011290e+03
3.908100000000000129e+00 4.227960406106415576e+03
3.955700000000000216e+00 4.429993516538383119e+03
4.003400000000000070e+00 4.645390416011478919e+03
4.051099999999999923e+00 4.874235305759731091e+03
4.098700000000000010e+00 5.112850187940915930e+03
4.146399999999999864e+00 5.376502738934121226e+03
4.193999999999999950e+00 5.657796492186235810e+03
4.241699999999999804e+00 5.957098152891645441e+03
4.289399999999999658e+00 6.286028719594515678e+03
4.336999999999999744e+00 6.637055026813029144e+03
4.384699999999999598e+00 7.026061834019573325e+03
4.432299999999999685e+00 7.457191772885596038e+03
4.480000000000000426e+00 7.942881320607298221e+03
4.527700000000000280e+00 8.487462580972596697e+03
4.575300000000000367e+00 9.135172230987700459e+03
4.623000000000000220e+00 9.883654890780222559e+03
4.670600000000000307e+00 1.074149594200776664e+04
4.718300000000000161e+00 1.172585992869339861e+04
4.765900000000000247e+00 1.286933815139426770e+04
4.813600000000000101e+00 1.424654347449785200e+04
4.861299999999999955e+00 1.594077440513155125e+04
4.908900000000000041e+00 1.803724395501289109e+04
4.956599999999999895e+00 2.054808805329409006e+04
5.004199999999999982e+00 2.351469438409338181e+04
5.051899999999999835e+00 2.679570951068771319e+04
5.099599999999999689e+00 3.038350254411472997e+04
5.147199999999999775e+00 3.457896362544144358e+04
5.194899999999999629e+00 3.990012279689860588e+04
5.242499999999999716e+00 4.595895148458024050e+04
5.290199999999999569e+00 5.181082708913158422e+04
5.337900000000000311e+00 5.708780250018318475e+04
5.385500000000000398e+00 6.363137011440422793e+04
5.433200000000000252e+00 7.247701116919041669e+04
5.480800000000000338e+00 8.135537111920914322e+04
5.528500000000000192e+00 8.744588805400257115e+04
5.576200000000000045e+00 9.494050749442800588e+04
5.623800000000000132e+00 1.048312689038979734e+05
5.671499999999999986e+00 1.125013182278731983e+05
5.719100000000000072e+00 1.182320544445716660e+05
5.766799999999999926e+00 1.255447687012334500e+05
5.814499999999999780e+00 1.370788509535976045e+05
5.862099999999999866e+00 1.557338895460359054e+05
5.909799999999999720e+00 1.825523270070255385e+05
5.957399999999999807e+00 2.154212796904978750e+05
6.005099999999999660e+00 2.499499534464424651e+05
6.052800000000000402e+00 2.827314809660317260e+05
6.100399999999999601e+00 3.109691591248349869e+05
6.148100000000000342e+00 3.373322668228410184e+05
6.195700000000000429e+00 3.620103695076361182e+05
6.243400000000000283e+00 3.805975541981491260e+05
6.291100000000000136e+00 3.901740865947073326e+05
6.338700000000000223e+00 3.975822148289184552e+05
6.386400000000000077e+00 4.133269741941761458e+05
6.434000000000000163e+00 4.408814424012370873e+05
6.481700000000000017e+00 4.804599433526436333e+05
6.529300000000000104e+00 5.286069470826128963e+05
6.576999999999999957e+00 5.717617708879273850e+05
6.624699999999999811e+00 5.945913820509901270e+05
6.672299999999999898e+00 5.972917880634370958e+05
6.719999999999999751e+00 5.911692277724663727e+05
6.767599999999999838e+00 5.855548297483512433e+05
6.815299999999999692e+00 5.879339543118004221e+05
6.863000000000000433e+00 6.009024237096767174e+05
6.910599999999999632e+00 6.240175785083048977e+05
6.958300000000000374e+00 6.448455098500972381e+05
7.005899999999999572e+00 6.522027122909579193e+05
7.053600000000000314e+00 6.480403964943470201e+05
7.101300000000000168e+00 6.411333783217374003e+05
7.148900000000000254e+00 6.380318006367374910e+05
7.196600000000000108e+00 6.330683261525643757e+05
7.244200000000000195e+00 6.241821670429056976e+05
7.291900000000000048e+00 6.197302419034697814e+05
7.339599999999999902e+00 6.255398058179598302e+05
7.387199999999999989e+00 6.380015026548720198e+05
7.434899999999999842e+00 6.530420848067661282e+05
7.482499999999999929e+00 6.694606405895675998e+05
7.530199999999999783e+00 6.819389696235322626e+05
7.577899999999999636e+00 6.836096828418046935e+05
7.625499999999999723e+00 6.773184332056044368e+05
7.673199999999999577e+00 6.687123686093520373e+05
7.720799999999999663e+00 6.590105859684471507e+05
7.768500000000000405e+00 6.534339390220037894e+05
7.816200000000000259e+00 6.625207218764044810e+05
7.863800000000000345e+00 6.843715842028741026e+05
7.911500000000000199e+00 7.061857632105968660e+05
7.959100000000000286e+00 7.223546470596101135e+05
8.006800000000000139e+00 7.393390218264770228e+05
8.054500000000000881e+00 7.664066358871308621e+05
8.102100000000000080e+00 8.034176877989085624e+05
8.149800000000000821e+00 8.411784605174905155e+05
8.197400000000000020e+00 8.712470367770988960e+05
8.245100000000000762e+00 8.960626609454021091e+05
8.292699999999999960e+00 9.214542002117418451e+05
8.340400000000000702e+00 9.558846487208423205e+05
8.388099999999999667e+00 9.913398717340982985e+05
8.435700000000000642e+00 1.005715386240215623e+06
8.483399999999999608e+00 1.003083775576992310e+06
8.531000000000000583e+00 9.991275857583758188e+05
8.578699999999999548e+00 9.936208849181091646e+05
8.626400000000000290e+00 9.749071665131322807e+05
8.673999999999999488e+00 9.416041580678252503e+05
8.721700000000000230e+00 9.015338479544493603e+05
8.769299999999999429e+00 8.637418744873887626e+05
8.817000000000000171e+00 8.381067295784718590e+05
8.864699999999999136e+00 8.281099004415014060e+05
8.912300000000000111e+00 8.275753871295063291e+05
8.960000000000000853e+00 8.262958319769755471e+05
9.007600000000000051e+00 8.207052507411488332e+05
9.055300000000000793e+00 8.159621223785383627e+05
9.102999999999999758e+00 8.163255789885116974e+05
9.150600000000000733e+00 8.212845961480067344e+05
9.198299999999999699e+00 8.293151093599816086e+05
9.245900000000000674e+00 8.385344298995523714e+05
9.293599999999999639e+00 8.466545654855237808e+05
9.341300000000000381e+00 8.559739772767791292e+05
9.388899999999999579e+00 8.688699901800773805e+05
9.436600000000000321e+00 8.859257312243791530e+05
9.484199999999999520e+00 9.083229271029090742e+05
9.531900000000000261e+00 9.282865288184625097e+05
9.579599999999999227e+00 9.370848396450506989e+05
9.627200000000000202e+00 9.338582427174175391e+05
9.674899999999999167e+00 9.150512571371544618e+05
9.722500000000000142e+00 8.791233031003762735e+05
9.770200000000000884e+00 8.394832176784856711e+05
9.817899999999999849e+00 8.067920309509353247e+05
9.865500000000000824e+00 7.846374753287154017e+05
9.913199999999999790e+00 7.759731567981643602e+05
9.960800000000000765e+00 7.797615414456679719e+05
1.000849999999999973e+01 7.913504128961963579e+05
1.005610000000000070e+01 8.002832716688857181e+05
1.010379999999999967e+01 8.007957457073252881e+05
1.015150000000000041e+01 7.942899749832488596e+05
1.019909999999999961e+01 7.837965133056291379e+05
1.024680000000000035e+01 7.709028005802063271e+05
1.029439999999999955e+01 7.586684647306905827e+05
1.034210000000000029e+01 7.511027190975603880e+05
1.038979999999999926e+01 7.462510007868323009e+05
1.043740000000000023e+01 7.432887946953522041e+05
1.048509999999999920e+01 7.446343546953659970e+05
1.053270000000000017e+01 7.488846022125304444e+05
1.058039999999999914e+01 7.510686755052356748e+05
1.062809999999999988e+01 7.512593325690847123e+05
1.067570000000000086e+01 7.504622662865864113e+05
1.072339999999999982e+01 7.412017194783986779e+05
1.077100000000000080e+01 7.238742119007157162e+05
1.081869999999999976e+01 7.076294806290852139e+05
1.086640000000000050e+01 6.975360255538880592e+05
1.091399999999999970e+01 6.921076466314801946e+05
1.096170000000000044e+01 6.892893662743837340e+05
1.100929999999999964e+01 6.874618218333167024e+05
1.105700000000000038e+01 6.873853916534929303e+05
1.110469999999999935e+01 6.936585845057880506e+05
1.115230000000000032e+01 7.096978591439960292e+05
1.119999999999999929e+01 7.335637248181211762e+05
1.124760000000000026e+01 7.615668517834478989e+05
1.129529999999999923e+01 7.907724828129622620e+05
1.134299999999999997e+01 8.134800121268668445e+05
1.139059999999999917e+01 8.302096560113187879e+05
1.143829999999999991e+01 8.455159122827139217e+05
1.148590000000000089e+01 8.578226375924538588e+05
1.153359999999999985e+01 8.614533070406621555e+05
1.158130000000000059e+01 8.598909718558579916e+05
1.162889999999999979e+01 8.643958882109174738e+05
1.167660000000000053e+01 8.773971826801478164e+05
1.172419999999999973e+01 8.924970932604919653e+05
1.177190000000000047e+01 9.060079901535147801e+05
1.181959999999999944e+01 9.170553827203350374e+05
1.186720000000000041e+01 9.250611543647354702e+05
1.191489999999999938e+01 9.264278030805329327e+05
1.196250000000000036e+01 9.201293547188785160e+05
1.201019999999999932e+01 9.055207661351466086e+05
1.205780000000000030e+01 8.846164399669755949e+05
1.210549999999999926e+01 8.700176843152105575e+05
1.215320000000000000e+01 8.714029101123942528e+05
1.220079999999999920e+01 8.843395485753598623e+05
1.224849999999999994e+01 8.996646733006974682e+05
1.229609999999999914e+01 9.067378314752443694e+05
1.234379999999999988e+01 8.996349056751019089e+05
1.239150000000000063e+01 8.810266918697020737e+05
1.243909999999999982e+01 8.596095147976614535e+05
1.248680000000000057e+01 8.416480115904317936e+05
1.253439999999999976e+01 8.300198837253703969e+05
1.258210000000000051e+01 8.222560742251396878e+05
1.262979999999999947e+01 8.138379722728646593e+05
1.267740000000000045e+01 8.066621763922633836e+05
1.272509999999999941e+01 8.065023581987090874e+05
1.277270000000000039e+01 8.168805292341578752e+05
1.282039999999999935e+01 8.345915051255257567e+05
1.286810000000000009e+01 8.561866224104039138e+05
1.291569999999999929e+01 8.800365004933624296e+05
1.296340000000000003e+01 9.027129277476369170e+05
1.301099999999999923e+01 9.214973414884995436e+05
1.305869999999999997e+01 9.369676529014655389e+05
1.310640000000000072e+01 9.530638682634194847e+05
1.315399999999999991e+01 9.701202638629572466e+05
1.320170000000000066e+01 9.862004201354216784e+05
1.324929999999999986e+01 1.000550332864048891e+06
1.329700000000000060e+01 1.014803681757374899e+06
1.334469999999999956e+01 1.028010186296624248e+06
1.339230000000000054e+01 1.039325802430779440e+06
1.343999999999999950e+01 1.048188908421634580e+06
1.348760000000000048e+01 1.044624223391112057e+06
1.353529999999999944e+01 1.024407799487104290e+06
1.358300000000000018e+01 9.988749503229852999e+05
1.363059999999999938e+01 9.774931026448229095e+05
1.367830000000000013e+01 9.604658016743457410e+05
1.372589999999999932e+01 9.495254165846318938e+05
1.377360000000000007e+01 9.513962186774009606e+05
1.382119999999999926e+01 9.621441540859915549e+05
1.386890000000000001e+01 9.699400776912496658e+05
1.391660000000000075e+01 9.652554759570021415e+05
1.396419999999999995e+01 9.485674547926334199e+05
1.401190000000000069e+01 9.241368248670984758e+05
1.405949999999999989e+01 8.921985541833728785e+05
1.410720000000000063e+01 8.562647924623650033e+05
1.415489999999999959e+01 8.213525060436255299e+05
1.420250000000000057e+01 7.922432679322407348e+05
1.425019999999999953e+01 7.710043289846560219e+05
1.429780000000000051e+01 7.612677624954403145e+05
1.434549999999999947e+01 7.671797587158248061e+05
1.439320000000000022e+01 7.820451661407264182e+05
1.444079999999999941e+01 7.941011030996637419e+05
1.448850000000000016e+01 8.044375365302611608e+05
1.453609999999999935e+01 8.161962340540556470e+05
1.458380000000000010e+01 8.316584133414552780e+05
1.463150000000000084e+01 8.470697014865463134e+05
1.467910000000000004e+01 8.623362230009224731e+05
1.472680000000000078e+01 8.805266103468947113e+05
1.477439999999999998e+01 8.933174278471551370e+05
1.482210000000000072e+01 9.006051762582304655e+05
1.486979999999999968e+01 9.155698399727426004e+05
1.491740000000000066e+01 9.371386336911902763e+05
1.496509999999999962e+01 9.505598346308568725e+05
1.501270000000000060e+01 9.482614480696822284e+05
1.506039999999999957e+01 9.362975624828223372e+05
1.510810000000000031e+01 9.252305788306359900e+05
1.515569999999999951e+01 9.238695209734839154e+05
1.520340000000000025e+01 9.316740796022723662e+05
1.525099999999999945e+01 9.439488136373946909e+05
1.529870000000000019e+01 9.610609741609378252e+05
1.534639999999999915e+01 9.849425499908142956e+05
1.539400000000000013e+01 1.010786555339783896e+06
1.544170000000000087e+01 1.032745153782846755e+06
1.548930000000000007e+01 1.046799391785979504e+06
1.553700000000000081e+01 1.052727700417993590e+06
1.558460000000000001e+01 1.054478189001461724e+06
1.563230000000000075e+01 1.055495338779123500e+06
1.567999999999999972e+01 1.064507134617818519e+06
1.572760000000000069e+01 1.082859666310057743e+06
1.577529999999999966e+01 1.095871808852825547e+06
1.582290000000000063e+01 1.095930613184354967e+06
1.587059999999999960e+01 1.087382182755246526e+06
1.591830000000000034e+01 1.077418131540381582e+06
1.596589999999999954e+01 1.062578037573925918e+06
1.601360000000000028e+01 1.035249726576101501e+06
1.606119999999999948e+01 1.000420101130809402e+06
1.610889999999999844e+01 9.736087618331421399e+05
1.615660000000000096e+01 9.675855984515841119e+05
1.620420000000000016e+01 9.763588314687749371e+05
1.625189999999999912e+01 9.896711751846886473e+05
1.629949999999999832e+01 1.001795572202807642e+06
1.634720000000000084e+01 1.007011515408718958e+06
1.639489999999999981e+01 1.005117423531289329e+06
1.644249999999999901e+01 1.004096679926559329e+06
1.649020000000000152e+01 1.006977273895053775e+06
1.653780000000000072e+01 1.011261882072401582e+06
1.658549999999999969e+01 1.010410545592392329e+06
1.663319999999999865e+01 9.973201608856796520e+05
1.668080000000000140e+01 9.763225556444632821e+05
1.672850000000000037e+01 9.613621012553527253e+05
1.677609999999999957e+01 9.642494421599389752e+05
1.682379999999999853e+01 9.844437726623079507e+05
1.687150000000000105e+01 1.011762548412491567e+06
1.691910000000000025e+01 1.034916965450771386e+06
1.696679999999999922e+01 1.041939896495472873e+06
1.701439999999999841e+01 1.035209920584127773e+06
1.706210000000000093e+01 1.013544339978922275e+06
1.710979999999999990e+01 9.761827709023142233e+05
1.715739999999999910e+01 9.380647357175620273e+05
1.720510000000000161e+01 9.187983253245773958e+05
1.725270000000000081e+01 9.266163960309328977e+05
1.730039999999999978e+01 9.644184096086893696e+05
1.734809999999999874e+01 1.034951034610929783e+06
1.739570000000000149e+01 1.128955631700071273e+06
1.744340000000000046e+01 1.231412103708892362e+06
1.749099999999999966e+01 1.327295703149720561e+06
1.753869999999999862e+01 1.401463481755124172e+06
1.758630000000000138e+01 1.446794232875407673e+06
1.763400000000000034e+01 1.471128615064303624e+06
1.768169999999999931e+01 1.496332320212201914e+06
1.772929999999999851e+01 1.542345851545510348e+06
1.777700000000000102e+01 1.613685920026164735e+06
1.782460000000000022e+01 1.703081943865765817e+06
1.787229999999999919e+01 1.788949461085672723e+06
1.792000000000000171e+01 1.853805091488329694e+06
1.796760000000000090e+01 1.891655255103018833e+06
1.801529999999999987e+01 1.914145614315509098e+06
1.806289999999999907e+01 1.942404129683911335e+06
1.811060000000000159e+01 1.967156351128161186e+06
1.815830000000000055e+01 1.957206739598534070e+06
1.820589999999999975e+01 1.915726225163461175e+06
1.825359999999999872e+01 1.866308611010488356e+06
1.830120000000000147e+01 1.805121905497974250e+06
1.834890000000000043e+01 1.725807144574490376e+06
1.839659999999999940e+01 1.633658941464631120e+06
1.844419999999999860e+01 1.541115677256025607e+06
1.849190000000000111e+01 1.473804731558680302e+06
1.853950000000000031e+01 1.450660468830098631e+06
1.858719999999999928e+01 1.458293473595610587e+06
1.863489999999999824e+01 1.474332519472944085e+06
1.868250000000000099e+01 1.482943235233083367e+06
1.873019999999999996e+01 1.480255431484942092e+06
1.877779999999999916e+01 1.469265932402024977e+06
1.882550000000000168e+01 1.459170553699435201e+06
1.887320000000000064e+01 1.457299624701619614e+06
1.892079999999999984e+01 1.462619416748642689e+06
1.896849999999999881e+01 1.463299251591644716e+06
