# energy(eV) alpha
0.000000000000000000e+00 0.000000000000000000e+00
3.239999999999999825e-02 7.171370129477849797e-01
6.479999999999999649e-02 2.923539138455058417e+00
9.719999999999999474e-02 6.701479751968416387e+00
1.295000000000000040e-01 1.190298721441387642e+01
1.618999999999999884e-01 1.846045598189668979e+01
1.943000000000000005e-01 2.677875722140859693e+01
2.267000000000000126e-01 3.644291458829086849e+01
2.590999999999999970e-01 4.780857533146858174e+01
2.914999999999999813e-01 6.070823033105465072e+01
3.239000000000000212e-01 7.513850700469578214e+01
3.563000000000000056e-01 9.109634494547951533e+01
3.886000000000000010e-01 1.092105477600988621e+02
4.209999999999999853e-01 1.286215117781759432e+02
4.534000000000000252e-01 1.499871703983299085e+02
4.858000000000000096e-01 1.729727046625270930e+02
5.181999999999999940e-01 1.980111068683856956e+02
5.505999999999999783e-01 2.247108068302104300e+02
5.829999999999999627e-01 2.535593764805769297e+02
6.153999999999999471e-01 2.846311016951315764e+02
6.477000000000000535e-01 3.168559462794784167e+02
6.801000000000000378e-01 3.525341478576067971e+02
7.125000000000000222e-01 3.900522234258330059e+02
7.449000000000000066e-01 4.306529332485322357e+02
7.772999999999999909e-01 4.725224206531461277e+02
8.096999999999999753e-01 5.176124725191841662e+02
8.420999999999999597e-01 5.660703867596464534e+02
8.745000000000000551e-01 6.158348244550945765e+02
9.068000000000000504e-01 6.705476393733428040e+02
9.392000000000000348e-01 7.274934261924921657e+02
9.716000000000000192e-01 7.882180271186244909e+02
1.004000000000000004e+00 8.520149075287494043e+02
1.036399999999999988e+00 9.198064087289208146e+02
1.068799999999999972e+00 9.926125286768624392e+02
1.101199999999999957e+00 1.069725081012069495e+03
1.133599999999999941e+00 1.151262905516588035e+03
1.165899999999999936e+00 1.237248648040630769e+03
1.198299999999999921e+00 1.328987929319960131e+03
1.230699999999999905e+00 1.427598889024491655e+03
1.263099999999999890e+00 1.532286261935232005e+03
1.295500000000000096e+00 1.644285470109816742e+03
1.327900000000000080e+00 1.762754545923272644e+03
1.360300000000000065e+00 1.888978870580989224e+03
1.392700000000000049e+00 2.026582203489373114e+03
1.425000000000000044e+00 2.172355368352563346e+03
1.457400000000000029e+00 2.329184774464044494e+03
1.489800000000000013e+00 2.499655262011818195e+03
1.522199999999999998e+00 2.684226836622282008e+03
1.554599999999999982e+00 2.884587466927066998e+03
1.586999999999999966e+00 3.101169513319773159e+03
1.619399999999999951e+00 3.339645852817798186e+03
1.651799999999999935e+00 3.601985892375450931e+03
1.684099999999999930e+00 3.889981932563101964e+03
1.716499999999999915e+00 4.211599264522174053e+03
1.748899999999999899e+00 4.571657867015158445e+03
1.781300000000000106e+00 4.978228172317084500e+03
1.813700000000000090e+00 5.443862579657729839e+03
1.846100000000000074e+00 5.983047081066465580e+03
1.878500000000000059e+00 6.615024336671935089e+03
1.910900000000000043e+00 7.371660130220991960e+03
1.943200000000000038e+00 8.298691561216519403e+03
1.975600000000000023e+00 9.463101235297468520e+03
2.008000000000000007e+00 1.095472416226459245e+04
2.040399999999999991e+00 1.287494483225190925e+04
2.072799999999999976e+00 1.522472284973238311e+04
2.105199999999999960e+00 1.780109012134203294e+04
2.137599999999999945e+00 2.048152714438148905e+04
2.169900000000000162e+00 2.365053977089232649e+04
2.202300000000000146e+00 2.766722391327783407e+04
2.234700000000000131e+00 3.204467615880715312e+04
2.267100000000000115e+00 3.599388926386777166e+04
2.299500000000000099e+00 3.967946453918790212e+04
2.331900000000000084e+00 4.376014350826763257e+04
2.364300000000000068e+00 4.865031312489893753e+04
2.396700000000000053e+00 5.463687475013532094e+04
2.428999999999999826e+00 6.117823918726351985e+04
2.461399999999999810e+00 6.656736070496636967e+04
2.493799999999999795e+00 6.979906830645917216e+04
2.526199999999999779e+00 7.288622802825988038e+04
2.558600000000000207e+00 7.814216186853747058e+04
2.591000000000000192e+00 8.545818945518994587e+04
2.623400000000000176e+00 9.318295280521524546e+04
2.655800000000000161e+00 1.003488173409975861e+05
2.688099999999999934e+00 1.064171902500930591e+05
2.720499999999999918e+00 1.111131703298250795e+05
2.752899999999999903e+00 1.157429878861192992e+05
2.785299999999999887e+00 1.222482448127089738e+05
2.817699999999999871e+00 1.309389789104741067e+05
2.850099999999999856e+00 1.414426252030794567e+05
2.882499999999999840e+00 1.531741333686524304e+05
2.914899999999999824e+00 1.643228034007813258e+05
2.947200000000000042e+00 1.721516530565547873e+05
2.979600000000000026e+00 1.753488574328349496e+05
3.012000000000000011e+00 1.763083384842658415e+05
3.044399999999999995e+00 1.792416233816354943e+05
3.076799999999999979e+00 1.850268936573230603e+05
3.109199999999999964e+00 1.911984635987968068e+05
3.141599999999999948e+00 1.966348980094545404e+05
3.173999999999999932e+00 2.019948626209103968e+05
3.206300000000000150e+00 2.085114802014617890e+05
3.238700000000000134e+00 2.177944325939153787e+05
3.271100000000000119e+00 2.295975311878099455e+05
3.303500000000000103e+00 2.428679564915076480e+05
3.335900000000000087e+00 2.553743521887277311e+05
3.368300000000000072e+00 2.637430760584413074e+05
3.400700000000000056e+00 2.671988239910749253e+05
3.433100000000000041e+00 2.680872111998037435e+05
3.465399999999999814e+00 2.694120661504561431e+05
3.497799999999999798e+00 2.722960199135052972e+05
3.530199999999999783e+00 2.763513156601574738e+05
3.562600000000000211e+00 2.815546168229698669e+05
3.595000000000000195e+00 2.873927237909148680e+05
3.627400000000000180e+00 2.930409539778488688e+05
3.659800000000000164e+00 2.991582640148666687e+05
3.692200000000000149e+00 3.057798914457257488e+05
3.724499999999999922e+00 3.113429362448129687e+05
3.756899999999999906e+00 3.155216805521062342e+05
3.789299999999999891e+00 3.181870959470962989e+05
3.821699999999999875e+00 3.190869803073428338e+05
3.854099999999999859e+00 3.181703779253825778e+05
3.886499999999999844e+00 3.150798524200370885e+05
3.918899999999999828e+00 3.113429496584716835e+05
3.951299999999999812e+00 3.094938825459941290e+05
3.983600000000000030e+00 3.091838579226277070e+05
4.016000000000000014e+00 3.090035096382891643e+05
4.048399999999999999e+00 3.094877234062867356e+05
4.080799999999999983e+00 3.104967795879816986e+05
4.113199999999999967e+00 3.101073842297528754e+05
4.145599999999999952e+00 3.080765609358520596e+05
4.177999999999999936e+00 3.062134517343497719e+05
4.210300000000000153e+00 3.047595796245257952e+05
4.242700000000000138e+00 3.021365208472641534e+05
4.275100000000000122e+00 2.979389131216997630e+05
4.307500000000000107e+00 2.943575186525309109e+05
4.339900000000000091e+00 2.936858449627272203e+05
4.372300000000000075e+00 2.953367644955273136e+05
4.404700000000000060e+00 2.964341804464829038e+05
4.437100000000000044e+00 2.953600312596880831e+05
4.469400000000000261e+00 2.931052367501623812e+05
4.501800000000000246e+00 2.905912920913631679e+05
4.534200000000000230e+00 2.868456293006347842e+05
4.566600000000000215e+00 2.813594139572966960e+05
4.599000000000000199e+00 2.758753719503170578e+05
4.631400000000000183e+00 2.718663033289475716e+05
4.663800000000000168e+00 2.693230040792646469e+05
4.696200000000000152e+00 2.681316906691160402e+05
4.728500000000000369e+00 2.683223986421077279e+05
4.760900000000000354e+00 2.699645505235240562e+05
4.793300000000000338e+00 2.731752316543175839e+05
4.825700000000000323e+00 2.783956747384134796e+05
4.858100000000000307e+00 2.861149881484114449e+05
4.890500000000000291e+00 2.959505519310780219e+05
4.922900000000000276e+00 3.062682892968152883e+05
4.955300000000000260e+00 3.156468816214316757e+05
4.987599999999999589e+00 3.234345939907479333e+05
5.019999999999999574e+00 3.292194632380383555e+05
5.052399999999999558e+00 3.332844870785229141e+05
5.084800000000000431e+00 3.369013746052138740e+05
5.117200000000000415e+00 3.410031999364212970e+05
5.149600000000000399e+00 3.457053093144831946e+05
5.182000000000000384e+00 3.509890479512906168e+05
5.214400000000000368e+00 3.567368528532322962e+05
5.246699999999999697e+00 3.625612263968094485e+05
5.279099999999999682e+00 3.677837846510740346e+05
5.311499999999999666e+00 3.719169753164683352e+05
5.343899999999999650e+00 3.755104188017065171e+05
5.376299999999999635e+00 3.792311654805110884e+05
5.408699999999999619e+00 3.832446633241846575e+05
5.441099999999999604e+00 3.870821103341995040e+05
5.473499999999999588e+00 3.902747708243624074e+05
5.505799999999999805e+00 3.936791251424513175e+05
5.538199999999999790e+00 3.986304030971265165e+05
5.570599999999999774e+00 4.048833859764579101e+05
5.602999999999999758e+00 4.112906811738525284e+05
5.635399999999999743e+00 4.175885418666154146e+05
5.667799999999999727e+00 4.241287266208310612e+05
5.700199999999999712e+00 4.308345475522983470e+05
5.732599999999999696e+00 4.372049744534112397e+05
5.764899999999999913e+00 4.426423283047396108e+05
5.797299999999999898e+00 4.466259353089820361e+05
5.829699999999999882e+00 4.490173924451714265e+05
5.862099999999999866e+00 4.503387375849260134e+05
5.894499999999999851e+00 4.510968624939871952e+05
5.926899999999999835e+00 4.505939678114121780e+05
5.959299999999999820e+00 4.477218578275071341e+05
5.991699999999999804e+00 4.423315428219914902e+05
6.024000000000000021e+00 4.347787759833007003e+05
6.056400000000000006e+00 4.252839521319775959e+05
6.088799999999999990e+00 4.149905103765476961e+05
6.121199999999999974e+00 4.060162792577662040e+05
6.153599999999999959e+00 3.991462249802679871e+05
6.185999999999999943e+00 3.934839319562308374e+05
6.218399999999999928e+00 3.885921324474012945e+05
6.250700000000000145e+00 3.852317803572909907e+05
6.283100000000000129e+00 3.840075333682081546e+05
6.315500000000000114e+00 3.845134332270147279e+05
6.347900000000000098e+00 3.857235055892630480e+05
6.380300000000000082e+00 3.864966514296496753e+05
6.412700000000000067e+00 3.854967106440911884e+05
6.445100000000000051e+00 3.816439040042588022e+05
6.477500000000000036e+00 3.754824325520460261e+05
6.509800000000000253e+00 3.693072644505119533e+05
6.542200000000000237e+00 3.653330578292129794e+05
6.574600000000000222e+00 3.639424901392416796e+05
6.607000000000000206e+00 3.638035522361850017e+05
6.639400000000000190e+00 3.629254955511263106e+05
6.671800000000000175e+00 3.602342558095553541e+05
6.704200000000000159e+00 3.566047274505171226e+05
6.736600000000000144e+00 3.534516311919552390e+05
6.768900000000000361e+00 3.513695226592976833e+05
6.801300000000000345e+00 3.503039861570724170e+05
6.833700000000000330e+00 3.502208833902890910e+05
6.866100000000000314e+00 3.514413915771362954e+05
6.898500000000000298e+00 3.544480903624820057e+05
6.930900000000000283e+00 3.594466782592963427e+05
6.963300000000000267e+00 3.656733360140319564e+05
6.995700000000000252e+00 3.718576291221437277e+05
7.027999999999999581e+00 3.773950298135163030e+05
7.060399999999999565e+00 3.825870937128399382e+05
7.092800000000000438e+00 3.883142776419387665e+05
7.125200000000000422e+00 3.951728452976527624e+05
7.157600000000000406e+00 4.027330342905149446e+05
7.190000000000000391e+00 4.094718784668318112e+05
7.222400000000000375e+00 4.137401007102520089e+05
7.254800000000000360e+00 4.150641138293555705e+05
7.287099999999999689e+00 4.138570494089523563e+05
7.319499999999999673e+00 4.107989272057216149e+05
7.351899999999999658e+00 4.067333659177767695e+05
7.384299999999999642e+00 4.024951842957927147e+05
7.416699999999999626e+00 3.988220286526173586e+05
7.449099999999999611e+00 3.965034832238166709e+05
7.481499999999999595e+00 3.960618664732573670e+05
7.513899999999999579e+00 3.975447810009692912e+05
7.546199999999999797e+00 4.002471126484041451e+05
7.578599999999999781e+00 4.032266331589029287e+05
7.610999999999999766e+00 4.061409934341424378e+05
7.643399999999999750e+00 4.096444293555621989e+05
7.675799999999999734e+00 4.146862766230343259e+05
7.708199999999999719e+00 4.215858171308609890e+05
7.740599999999999703e+00 4.299069476085007191e+05
7.772999999999999687e+00 4.392790119610694819e+05
7.805299999999999905e+00 4.500769960611257120e+05
7.837699999999999889e+00 4.629387249523261562e+05
7.870099999999999874e+00 4.781626789898487041e+05
7.902499999999999858e+00 4.954602568280896521e+05
7.934899999999999842e+00 5.138442525352687808e+05
7.967299999999999827e+00 5.315310462226754753e+05
7.999699999999999811e+00 5.469373937093385030e+05
8.032099999999999795e+00 5.597760389283560216e+05
8.064399999999999125e+00 5.707058990944626275e+05
8.096799999999999997e+00 5.805923801612389507e+05
8.129200000000000870e+00 5.902792406077953056e+05
8.161599999999999966e+00 6.005289338829340413e+05
8.194000000000000838e+00 6.119404538773848908e+05
8.226399999999999935e+00 6.249172262874557637e+05
8.258800000000000807e+00 6.396483428526585922e+05
8.291100000000000136e+00 6.558326964710244210e+05
8.323499999999999233e+00 6.727273660434968770e+05
8.355900000000000105e+00 6.895977965477165999e+05
8.388299999999999201e+00 7.054662875467424747e+05
8.420700000000000074e+00 7.186220317734217970e+05
8.453099999999999170e+00 7.277757713860898511e+05
8.485500000000000043e+00 7.332111190629787743e+05
8.517899999999999139e+00 7.356179933542967774e+05
8.550200000000000244e+00 7.358562352804709226e+05
8.582599999999999341e+00 7.354275540395306889e+05
8.615000000000000213e+00 7.356537042012639577e+05
8.647399999999999309e+00 7.367079881519875489e+05
8.679800000000000182e+00 7.379696064790083328e+05
8.712199999999999278e+00 7.388732138385812286e+05
8.744600000000000151e+00 7.390685376043269644e+05
8.776999999999999247e+00 7.381182931045277510e+05
8.809300000000000352e+00 7.359924998762249015e+05
8.841699999999999449e+00 7.329867307659350336e+05
8.874100000000000321e+00 7.298078489888766780e+05
8.906499999999999417e+00 7.277053147082191426e+05
8.938900000000000290e+00 7.275948276215479709e+05
8.971299999999999386e+00 7.294879020532126306e+05
9.003700000000000259e+00 7.324916423420112114e+05
9.036099999999999355e+00 7.347640609319718787e+05
9.068400000000000460e+00 7.347075461408117553e+05
9.100799999999999557e+00 7.327150439219136024e+05
9.133200000000000429e+00 7.306256618745684391e+05
9.165599999999999525e+00 7.298714889934987295e+05
9.198000000000000398e+00 7.311334996730752755e+05
9.230399999999999494e+00 7.348027639220796991e+05
9.262800000000000367e+00 7.411199447234105319e+05
9.295199999999999463e+00 7.497997881923258537e+05
9.327500000000000568e+00 7.597433956076379400e+05
9.359899999999999665e+00 7.700214509877597447e+05
9.392300000000000537e+00 7.804573340462411288e+05
9.424699999999999633e+00 7.909708768227434484e+05
9.457100000000000506e+00 8.014142914455791470e+05
9.489499999999999602e+00 8.113192913634866709e+05
9.521900000000000475e+00 8.198969769151807996e+05
9.554299999999999571e+00 8.263702978702600813e+05
9.586600000000000676e+00 8.309651868796220515e+05
9.618999999999999773e+00 8.351976170806265436e+05
9.651400000000000645e+00 8.399334758969863178e+05
9.683799999999999741e+00 8.439519231537980959e+05
9.716200000000000614e+00 8.453351114669502713e+05
9.748599999999999710e+00 8.435991978006515419e+05
9.781000000000000583e+00 8.395909012221352896e+05
9.813399999999999679e+00 8.343997654625090072e+05
9.845700000000000784e+00 8.289826830565053970e+05
9.878099999999999881e+00 8.242635894364148844e+05
9.910500000000000753e+00 8.212284088020722847e+05
9.942899999999999849e+00 8.209508918601768091e+05
9.975300000000000722e+00 8.233526004241690971e+05
1.000769999999999982e+01 8.272090070920897415e+05
1.004010000000000069e+01 8.310227655502754496e+05
1.007249999999999979e+01 8.333577192976905499e+05
1.010479999999999912e+01 8.338074833961026743e+05
1.013719999999999999e+01 8.332596786531204125e+05
1.016960000000000086e+01 8.332337774926137645e+05
1.020199999999999996e+01 8.347357747568509076e+05
1.023440000000000083e+01 8.378566910818567267e+05
1.026679999999999993e+01 8.424919437140225200e+05
1.029920000000000080e+01 8.484325993330093333e+05
1.033150000000000013e+01 8.550400341133611510e+05
1.036389999999999922e+01 8.614210840762772132e+05
1.039630000000000010e+01 8.670448445580062689e+05
1.042869999999999919e+01 8.718869345293050865e+05
1.046110000000000007e+01 8.758597226229457883e+05
1.049349999999999916e+01 8.788297607831638306e+05
1.052590000000000003e+01 8.811654568529021926e+05
1.055829999999999913e+01 8.836492073191130767e+05
1.059060000000000024e+01 8.869834153483223636e+05
1.062299999999999933e+01 8.910718023719171761e+05
1.065540000000000020e+01 8.948051926145962207e+05
1.068779999999999930e+01 8.970574218839149689e+05
1.072020000000000017e+01 8.975738112177735893e+05
1.075259999999999927e+01 8.975562124439196195e+05
1.078500000000000014e+01 8.990399089081727434e+05
1.081739999999999924e+01 9.033263747123781359e+05
1.084970000000000034e+01 9.108189603606084129e+05
1.088209999999999944e+01 9.208278859023700934e+05
1.091450000000000031e+01 9.312663558297780110e+05
1.094689999999999941e+01 9.395729201180693926e+05
1.097930000000000028e+01 9.447939455887371441e+05
1.101169999999999938e+01 9.485976859200758627e+05
1.104410000000000025e+01 9.537999965569814667e+05
1.107649999999999935e+01 9.615485178608509013e+05
1.110880000000000045e+01 9.707677246324685402e+05
1.114119999999999955e+01 9.802893270436318126e+05
1.117360000000000042e+01 9.896634730342245894e+05
1.120599999999999952e+01 9.981566288269233191e+05
1.123840000000000039e+01 1.004341064236317412e+06
1.127079999999999949e+01 1.006581529186795582e+06
1.130320000000000036e+01 1.004069697485793498e+06
1.133559999999999945e+01 9.971013798704637447e+05
1.136790000000000056e+01 9.873449437416231958e+05
1.140029999999999966e+01 9.769658365269808564e+05
1.143270000000000053e+01 9.675699672856695252e+05
1.146509999999999962e+01 9.595767130476318998e+05
1.149750000000000050e+01 9.527161410261094570e+05
1.152989999999999959e+01 9.467233364770652261e+05
1.156230000000000047e+01 9.416025784072915558e+05
1.159469999999999956e+01 9.369385550965797156e+05
1.162700000000000067e+01 9.319078081800147193e+05
1.165939999999999976e+01 9.261939921877224697e+05
1.169180000000000064e+01 9.206494672201364301e+05
1.172419999999999973e+01 9.163758821092415601e+05
1.175660000000000061e+01 9.140411726588696474e+05
1.178899999999999970e+01 9.140383884331439622e+05
1.182140000000000057e+01 9.167709551008950220e+05
1.185379999999999967e+01 9.222715131522496231e+05
1.188610000000000078e+01 9.301947788201443618e+05
1.191849999999999987e+01 9.394594924496875610e+05
1.195090000000000074e+01 9.490907753190628719e+05
1.198329999999999984e+01 9.589584368534476962e+05
1.201570000000000071e+01 9.692227975852227537e+05
1.204809999999999981e+01 9.802682445403146558e+05
1.208050000000000068e+01 9.924168120196777163e+05
1.211289999999999978e+01 1.005236622924262076e+06
1.214520000000000088e+01 1.017166322644500877e+06
1.217759999999999998e+01 1.026817994081634679e+06
1.221000000000000085e+01 1.033724023670193274e+06
1.224239999999999995e+01 1.038253874181840220e+06
1.227480000000000082e+01 1.041195284849370131e+06
1.230719999999999992e+01 1.042721215686907410e+06
1.233960000000000079e+01 1.042131086344442330e+06
1.237190000000000012e+01 1.038537905580230057e+06
1.240429999999999922e+01 1.031647311900491710e+06
1.243670000000000009e+01 1.022183974484593607e+06
1.246909999999999918e+01 1.011464826812477782e+06
1.250150000000000006e+01 1.000296923141297419e+06
1.253389999999999915e+01 9.893970978803932667e+05
1.256630000000000003e+01 9.795741889554359950e+05
1.259869999999999912e+01 9.717928010629918426e+05
1.263100000000000023e+01 9.669309917070851661e+05
1.266339999999999932e+01 9.653964820649597095e+05
1.269580000000000020e+01 9.674843897780952975e+05
1.272819999999999929e+01 9.747010733063237276e+05
1.276060000000000016e+01 9.885379725263856817e+05
1.279299999999999926e+01 1.008967752993401722e+06
1.282540000000000013e+01 1.034056813447657274e+06
1.285779999999999923e+01 1.061028088292958913e+06
1.289010000000000034e+01 1.087628430549067445e+06
