# energy(eV) alpha
0.000000000000000000e+00 0.000000000000000000e+00
1.102999999999999953e-01 2.162827541721207503e+00
2.205999999999999905e-01 8.649707598741180448e+00
3.309000000000000274e-01 1.913178761774972259e+01
4.411999999999999811e-01 3.457341863421537198e+01
5.514999999999999902e-01 5.453031740280030704e+01
6.618000000000000549e-01 7.834059296798714911e+01
7.721999999999999975e-01 1.079409806228903506e+02
8.824999999999999512e-01 1.422033762553897986e+02
9.928000000000000158e-01 1.811103798061965904e+02
1.103099999999999969e+00 2.257075425706787541e+02
1.213400000000000034e+00 2.750964320943728580e+02
1.323700000000000099e+00 3.318042842848805094e+02
1.433999999999999941e+00 3.950278889453023794e+02
1.544300000000000006e+00 4.635264624002675760e+02
1.654600000000000071e+00 5.404350206542670776e+02
1.764899999999999913e+00 6.246009985290090754e+02
1.875199999999999978e+00 7.180487148966816449e+02
1.985500000000000043e+00 8.213006900785629796e+02
2.095899999999999874e+00 9.308868164742419822e+02
2.206199999999999939e+00 1.055012952417378301e+03
2.316500000000000004e+00 1.190373172582968891e+03
2.426800000000000068e+00 1.337385324153230158e+03
2.537100000000000133e+00 1.498826612761106844e+03
2.647400000000000198e+00 1.682838288582569021e+03
2.757699999999999818e+00 1.880487153106501637e+03
2.867999999999999883e+00 2.100096613033371341e+03
2.978299999999999947e+00 2.345402296245717480e+03
3.088600000000000012e+00 2.617626099345118746e+03
3.198900000000000077e+00 2.926635527899438330e+03
3.309200000000000141e+00 3.271082427452109641e+03
3.419599999999999973e+00 3.661646658567129180e+03
3.529900000000000038e+00 4.106200963258575030e+03
3.640200000000000102e+00 4.626286293790462878e+03
3.750500000000000167e+00 5.231299848466849653e+03
3.860799999999999788e+00 5.944082121584769084e+03
3.971099999999999852e+00 6.812438607166159272e+03
4.081400000000000361e+00 7.896517336191380309e+03
4.191699999999999982e+00 9.325412624662154485e+03
4.301999999999999602e+00 1.138306383905929579e+04
4.412300000000000111e+00 1.500113562527686372e+04
4.522599999999999731e+00 2.165669077850473332e+04
4.632900000000000240e+00 2.908329100819583618e+04
4.743299999999999628e+00 4.208259529485175881e+04
4.853600000000000136e+00 5.162403227199787216e+04
4.963899999999999757e+00 8.012556115323561244e+04
5.074200000000000266e+00 8.835894634745662916e+04
5.184499999999999886e+00 1.031644031150625524e+05
5.294800000000000395e+00 1.263920085011808696e+05
5.405100000000000016e+00 1.720309134676970425e+05
5.515399999999999636e+00 2.474119135299789486e+05
5.625700000000000145e+00 2.992806616318898741e+05
5.735999999999999766e+00 3.874541637209719629e+05
5.846300000000000274e+00 4.237571756622701068e+05
5.956599999999999895e+00 4.396566371710580424e+05
6.067000000000000171e+00 4.700701082595331827e+05
6.177299999999999791e+00 5.445747514319099719e+05
6.287600000000000300e+00 5.771090935560624348e+05
6.397899999999999920e+00 5.439960824364117580e+05
6.508200000000000429e+00 5.099195798795178416e+05
6.618500000000000050e+00 5.368845536191271385e+05
6.728799999999999670e+00 5.576257559541860828e+05
6.839100000000000179e+00 5.643673724682404427e+05
6.949399999999999800e+00 6.288750102499758359e+05
7.059700000000000308e+00 6.705690147698759101e+05
7.169999999999999929e+00 6.984936674228701741e+05
7.280300000000000438e+00 6.954104859872467350e+05
7.390699999999999825e+00 6.949420937059604330e+05
7.501000000000000334e+00 7.354208704861622537e+05
7.611299999999999955e+00 7.809392844044604572e+05
7.721599999999999575e+00 8.111704399704254465e+05
7.831900000000000084e+00 8.394037717913759407e+05
7.942199999999999704e+00 8.735081171263483120e+05
8.052500000000000213e+00 8.437144412105814554e+05
8.162800000000000722e+00 8.391207793460196117e+05
8.273099999999999454e+00 8.577613456039276207e+05
8.383399999999999963e+00 8.580637454068468651e+05
8.493700000000000472e+00 8.618868411544073606e+05
8.603999999999999204e+00 8.584435094837759389e+05
8.714399999999999480e+00 8.788108869127972284e+05
8.824699999999999989e+00 8.875706980512369191e+05
8.935000000000000497e+00 8.812848370715572964e+05
9.045299999999999230e+00 8.646068009398349095e+05
9.155599999999999739e+00 8.514732049283905653e+05
9.265900000000000247e+00 8.072160361040869029e+05
9.376200000000000756e+00 8.057621780087732477e+05
9.486499999999999488e+00 8.409899098995359382e+05
9.596799999999999997e+00 8.535613330841631396e+05
9.707100000000000506e+00 8.568755729462121380e+05
9.817399999999999238e+00 8.323694012425101828e+05
9.927699999999999747e+00 8.153403112610647222e+05
1.003810000000000002e+01 7.998636211181191029e+05
1.014840000000000053e+01 7.877506319263461046e+05
1.025869999999999926e+01 7.892833641592018539e+05
1.036899999999999977e+01 8.039202378593963804e+05
1.047930000000000028e+01 8.027886029237656621e+05
1.058960000000000079e+01 7.991685210289764218e+05
1.069989999999999952e+01 7.906783913233986823e+05
1.081020000000000003e+01 8.101568648838170338e+05
1.092050000000000054e+01 8.000402676073594484e+05
1.103079999999999927e+01 7.975037064088530606e+05
1.114109999999999978e+01 8.363321483415102120e+05
1.125140000000000029e+01 8.100774107505985303e+05
1.136180000000000057e+01 7.747642012741370127e+05
1.147209999999999930e+01 7.608933296650070697e+05
1.158239999999999981e+01 7.598091475737183355e+05
1.169270000000000032e+01 7.614428203131874325e+05
1.180300000000000082e+01 7.831348776908908039e+05
1.191329999999999956e+01 7.882552926110127009e+05
1.202360000000000007e+01 8.044299506519230781e+05
1.213390000000000057e+01 8.309404534373002825e+05
1.224419999999999931e+01 8.191929321572118206e+05
1.235449999999999982e+01 8.405950512873855187e+05
1.246480000000000032e+01 8.865032508837451460e+05
1.257510000000000083e+01 9.470031329939202406e+05
1.268549999999999933e+01 9.769983571448690491e+05
1.279579999999999984e+01 9.853008421180619625e+05
1.290610000000000035e+01 1.000091550767417997e+06
1.301640000000000086e+01 1.017142021516772569e+06
1.312669999999999959e+01 9.930944020703346469e+05
1.323700000000000010e+01 9.924808536009854870e+05
1.334730000000000061e+01 1.002922296691462281e+06
1.345759999999999934e+01 9.827627926465955097e+05
1.356789999999999985e+01 9.632607007794704987e+05
1.367820000000000036e+01 9.506540893361180788e+05
1.378850000000000087e+01 9.353846724061863497e+05
1.389879999999999960e+01 9.304814171592401108e+05
1.400919999999999987e+01 9.446663058434691047e+05
1.411950000000000038e+01 9.876302082942846464e+05
1.422979999999999912e+01 1.032584108990464942e+06
1.434009999999999962e+01 1.058839455246098340e+06
1.445040000000000013e+01 1.075248976221557939e+06
1.456070000000000064e+01 1.071743609249206027e+06
1.467099999999999937e+01 1.089994155051679118e+06
1.478129999999999988e+01 1.084453722232788103e+06
1.489160000000000039e+01 1.043335237086345674e+06
1.500189999999999912e+01 1.037921767040535575e+06
1.511219999999999963e+01 1.039896279700017301e+06
1.522250000000000014e+01 9.990709145261127269e+05
1.533290000000000042e+01 9.734446539189418545e+05
1.544319999999999915e+01 1.011597306242564577e+06
1.555349999999999966e+01 1.056195453344808891e+06
1.566380000000000017e+01 1.050761301363563165e+06
1.577410000000000068e+01 1.062045995196280070e+06
1.588439999999999941e+01 1.068828729756044690e+06
1.599469999999999992e+01 1.069825617280420847e+06
1.610500000000000043e+01 1.115266911192655331e+06
1.621529999999999916e+01 1.169714120190293528e+06
1.632560000000000144e+01 1.241562593569878023e+06
1.643590000000000018e+01 1.217832965432091383e+06
1.654619999999999891e+01 1.178532466303922469e+06
1.665660000000000096e+01 1.140497661748196464e+06
1.676689999999999969e+01 1.094993535296102054e+06
1.687719999999999843e+01 1.074226191403827164e+06
1.698750000000000071e+01 1.050707053236568347e+06
1.709779999999999944e+01 1.054575414827229688e+06
1.720810000000000173e+01 1.018487437049729750e+06
1.731840000000000046e+01 9.862171614757153438e+05
1.742869999999999919e+01 9.659946633919868618e+05
1.753900000000000148e+01 9.644503543235433754e+05
1.764930000000000021e+01 9.316031002454154659e+05
1.775959999999999894e+01 8.904740515342372237e+05
1.786990000000000123e+01 8.832448453768349718e+05
1.798029999999999973e+01 8.626369452712056227e+05
1.809059999999999846e+01 8.364041896428418113e+05
1.820090000000000074e+01 8.301071177786121843e+05
1.831119999999999948e+01 8.263201225133043481e+05
1.842150000000000176e+01 8.188393430902489927e+05
1.853180000000000049e+01 8.008758667519813171e+05
1.864209999999999923e+01 7.789145683476653649e+05
1.875240000000000151e+01 7.539285292000215268e+05
1.886270000000000024e+01 7.206364389796310570e+05
1.897299999999999898e+01 6.945037638831613585e+05
1.908330000000000126e+01 6.541181582838995382e+05
1.919359999999999999e+01 6.170252163862054003e+05
1.930399999999999849e+01 5.961515358241406502e+05
1.941430000000000078e+01 5.658065501475268975e+05
1.952459999999999951e+01 5.346376402315573068e+05
1.963489999999999824e+01 5.117497104707690305e+05
1.974520000000000053e+01 4.866081678153365501e+05
1.985549999999999926e+01 4.641317079049142776e+05
1.996580000000000155e+01 4.582702489265680197e+05
2.007610000000000028e+01 4.556291973291865434e+05
2.018639999999999901e+01 4.365299668308788678e+05
2.029670000000000130e+01 4.503273190409839735e+05
2.040700000000000003e+01 4.675347362285289564e+05
2.051729999999999876e+01 5.041215496267167036e+05
2.062770000000000081e+01 5.367911806883561658e+05
2.073799999999999955e+01 6.305058348637733143e+05
2.084829999999999828e+01 7.167141649012616836e+05
2.095860000000000056e+01 7.762263427796774777e+05
2.106889999999999930e+01 9.102404780135437613e+05
2.117920000000000158e+01 9.617297771225461038e+05
2.128950000000000031e+01 9.869596183856074931e+05
2.139979999999999905e+01 1.051182453059481457e+06
2.151010000000000133e+01 1.257895768933419837e+06
2.162040000000000006e+01 1.349940927726784023e+06
2.173069999999999879e+01 1.289178753011497669e+06
2.184100000000000108e+01 1.257606842933365609e+06
2.195139999999999958e+01 1.257757975521617103e+06
2.206169999999999831e+01 1.287934321505241329e+06
2.217200000000000060e+01 1.323471928083547158e+06
2.228229999999999933e+01 1.293973072887895163e+06
2.239260000000000161e+01 1.275068887820976321e+06
2.250290000000000035e+01 1.277210986898552859e+06
2.261319999999999908e+01 1.327049573736397084e+06
2.272350000000000136e+01 1.258932417480044067e+06
2.283380000000000010e+01 1.156356764405433787e+06
2.294409999999999883e+01 1.047897944627876510e+06
2.305440000000000111e+01 8.916009107133332873e+05
2.316469999999999985e+01 7.755316712947876658e+05
2.327499999999999858e+01 7.642526335904463194e+05
2.338540000000000063e+01 7.639211162063465454e+05
2.349569999999999936e+01 7.300476627172263106e+05
2.360600000000000165e+01 7.514402463725119596e+05
2.371630000000000038e+01 8.258124594386068638e+05
2.382659999999999911e+01 8.185421926771847066e+05
2.393690000000000140e+01 8.270179519947485533e+05
2.404720000000000013e+01 8.773342190790933091e+05
2.415749999999999886e+01 9.126924611767062452e+05
2.426780000000000115e+01 8.443969371232379926e+05
2.437809999999999988e+01 7.839243948129869532e+05
2.448839999999999861e+01 7.537054163267948898e+05
2.459870000000000090e+01 7.311329085620500846e+05
2.470909999999999940e+01 6.818367674777581124e+05
2.481940000000000168e+01 6.420985518647058634e+05
2.492970000000000041e+01 6.294884162554889917e+05
2.503999999999999915e+01 6.189754203864464071e+05
2.515030000000000143e+01 5.995546416679729009e+05
2.526060000000000016e+01 5.933000551676404430e+05
2.537089999999999890e+01 5.376344551630982896e+05
2.548120000000000118e+01 4.969785592754135141e+05
2.559149999999999991e+01 4.845662131867774297e+05
2.570179999999999865e+01 4.893667783533383044e+05
2.581210000000000093e+01 4.736199500397382653e+05
2.592239999999999966e+01 4.656293327089452068e+05
2.603280000000000172e+01 4.650527443489506841e+05
2.614310000000000045e+01 4.605530916490742820e+05
2.625339999999999918e+01 4.428797326310281642e+05
2.636370000000000147e+01 4.205675437033298658e+05
2.647400000000000020e+01 4.136545586914366577e+05
2.658429999999999893e+01 4.173421417777688475e+05
2.669460000000000122e+01 4.095628482544408180e+05
2.680489999999999995e+01 3.989175985356821911e+05
2.691519999999999868e+01 3.873937844197049853e+05
2.702550000000000097e+01 3.883909472216581344e+05
2.713579999999999970e+01 3.751392723378935480e+05
2.724609999999999843e+01 3.671927504096797202e+05
2.735650000000000048e+01 3.499119516101650079e+05
2.746679999999999922e+01 3.419510180511486833e+05
2.757710000000000150e+01 3.344893770995474188e+05
2.768740000000000023e+01 3.229997161394692957e+05
2.779769999999999897e+01 3.279620283273217501e+05
2.790800000000000125e+01 3.056978310844225925e+05
2.801829999999999998e+01 2.904372178215191816e+05
2.812859999999999872e+01 2.859908548049465753e+05
2.823890000000000100e+01 2.861890180181339965e+05
2.834919999999999973e+01 2.893005638750466751e+05
2.845949999999999847e+01 2.868403890919342521e+05
2.856980000000000075e+01 2.991900910252820468e+05
2.868019999999999925e+01 2.919685716697238386e+05
2.879050000000000153e+01 2.807714501309326733e+05
2.890080000000000027e+01 2.721783434820272960e+05
2.901109999999999900e+01 2.753955450142358313e+05
2.912140000000000128e+01 2.679252669826323399e+05
2.923170000000000002e+01 2.513425419068620831e+05
2.934199999999999875e+01 2.534244488090743835e+05
2.945230000000000103e+01 2.519989237714147021e+05
2.956259999999999977e+01 2.382527363723385788e+05
2.967289999999999850e+01 2.375964404168006731e+05
2.978320000000000078e+01 2.333804509748959099e+05
2.989349999999999952e+01 2.248043448194058437e+05
3.000390000000000157e+01 2.281143271189933002e+05
3.011420000000000030e+01 2.246565178802110313e+05
3.022449999999999903e+01 2.197525629909374984e+05
3.033480000000000132e+01 2.172067392852576158e+05
3.044510000000000005e+01 2.099208553923271538e+05
3.055539999999999878e+01 2.041883211342848081e+05
3.066570000000000107e+01 2.027687383941318258e+05
3.077599999999999980e+01 1.991119276312609436e+05
3.088629999999999853e+01 1.978160246544064139e+05
3.099660000000000082e+01 1.958389027014238527e+05
3.110689999999999955e+01 1.947422626218742516e+05
3.121719999999999828e+01 1.954339965011956228e+05
3.132760000000000034e+01 1.889100997152931232e+05
3.143789999999999907e+01 1.859304992610253685e+05
3.154820000000000135e+01 1.791446164573360002e+05
3.165850000000000009e+01 1.743007082113582583e+05
3.176879999999999882e+01 1.737105671142877545e+05
3.187910000000000110e+01 1.701246010518694820e+05
3.198939999999999984e+01 1.677850472663956753e+05
3.209969999999999857e+01 1.677297583000217273e+05
3.221000000000000085e+01 1.648155998941281578e+05
3.232030000000000314e+01 1.636108233893639408e+05
3.243059999999999832e+01 1.654143548288782185e+05
3.254090000000000060e+01 1.573491681561538135e+05
3.265129999999999910e+01 1.547727860478358925e+05
3.276160000000000139e+01 1.569933475424792850e+05
3.287189999999999657e+01 1.555920792725605133e+05
3.298219999999999885e+01 1.535530219225760084e+05
3.309250000000000114e+01 1.527717555892454693e+05
3.320280000000000342e+01 1.550461782642711187e+05
3.331309999999999860e+01 1.508880291682483512e+05
3.342340000000000089e+01 1.514171137507180683e+05
3.353370000000000317e+01 1.477986903316453390e+05
3.364399999999999835e+01 1.447045458648603526e+05
3.375430000000000064e+01 1.458837975202261296e+05
3.386460000000000292e+01 1.424299659117161646e+05
3.397500000000000142e+01 1.423788068601334817e+05
3.408529999999999660e+01 1.419512010832173401e+05
3.419559999999999889e+01 1.450661623154482804e+05
3.430590000000000117e+01 1.488432401570471411e+05
3.441620000000000346e+01 1.428893991905617877e+05
3.452649999999999864e+01 1.381730577180112596e+05
3.463680000000000092e+01 1.368470758248853672e+05
3.474710000000000321e+01 1.396826959449765855e+05
3.485739999999999839e+01 1.365648018502156192e+05
3.496770000000000067e+01 1.342745598980112409e+05
3.507800000000000296e+01 1.318008118928134791e+05
3.518829999999999814e+01 1.319115361289122084e+05
3.529869999999999663e+01 1.336783928732317872e+05
3.540899999999999892e+01 1.275948631608146970e+05
3.551930000000000121e+01 1.282543110395367548e+05
3.562960000000000349e+01 1.221211949121216894e+05
3.573989999999999867e+01 1.196067450605841150e+05
3.585020000000000095e+01 1.198629680590287608e+05
3.596050000000000324e+01 1.200983434095399571e+05
3.607079999999999842e+01 1.260996423943337868e+05
3.618110000000000070e+01 1.286186577155296109e+05
3.629140000000000299e+01 1.273065755502510729e+05
3.640169999999999817e+01 1.264680885801244003e+05
3.651200000000000045e+01 1.273943792152318201e+05
3.662239999999999895e+01 1.245162650300048845e+05
3.673270000000000124e+01 1.216383716441657016e+05
3.684300000000000352e+01 1.173559956092174398e+05
3.695329999999999870e+01 1.134110330201365432e+05
3.706360000000000099e+01 1.106020636705850193e+05
3.717390000000000327e+01 1.124233631659868552e+05
3.728419999999999845e+01 1.118494860165074933e+05
3.739450000000000074e+01 1.087708196892733977e+05
3.750480000000000302e+01 1.079419966585007351e+05
3.761509999999999820e+01 1.069621271039561252e+05
3.772540000000000049e+01 1.032933070277419465e+05
3.783570000000000277e+01 1.047501432215630921e+05
3.794610000000000127e+01 1.040424814948124404e+05
3.805639999999999645e+01 1.029244823028819228e+05
3.816669999999999874e+01 1.035123561253710941e+05
3.827700000000000102e+01 1.012421800845006219e+05
3.838730000000000331e+01 1.015164642570920696e+05
3.849759999999999849e+01 9.952393374635197688e+04
3.860790000000000077e+01 9.970550411937337776e+04
3.871820000000000306e+01 9.918849741369363619e+04
3.882849999999999824e+01 9.857755787265024264e+04
3.893880000000000052e+01 9.894502645747661882e+04
3.904910000000000281e+01 9.823227797247168201e+04
3.915939999999999799e+01 9.587527174342831131e+04
3.926979999999999649e+01 9.263301505934863235e+04
3.938009999999999877e+01 9.183164028902986320e+04
3.949040000000000106e+01 8.976703909568207746e+04
3.960070000000000334e+01 8.887889834474850795e+04
3.971099999999999852e+01 8.760796184769339743e+04
3.982130000000000081e+01 8.823462987145260558e+04
3.993160000000000309e+01 8.661565668964390352e+04
4.004189999999999827e+01 8.586261930245661642e+04
4.015220000000000056e+01 8.643807597671479743e+04
4.026250000000000284e+01 8.359614425193700299e+04
4.037279999999999802e+01 8.268028271312477591e+04
4.048310000000000031e+01 8.162343526272127929e+04
4.059349999999999881e+01 8.048392029892130813e+04
4.070380000000000109e+01 7.909027983395171759e+04
4.081410000000000338e+01 7.991171848753855738e+04
4.092439999999999856e+01 8.062827055756245682e+04
4.103470000000000084e+01 7.942576303110993467e+04
4.114500000000000313e+01 7.843030402473402501e+04
4.125529999999999831e+01 7.750876103024439362e+04
4.136560000000000059e+01 7.664590338009952393e+04
4.147590000000000288e+01 7.742617200332875655e+04
4.158619999999999806e+01 7.636276343440910568e+04
4.169650000000000034e+01 7.522024782368529122e+04
4.180680000000000263e+01 7.146166147968159930e+04
4.191720000000000113e+01 7.127096949801094888e+04
4.202750000000000341e+01 6.904563920888651046e+04
4.213779999999999859e+01 7.011161396968216286e+04
4.224810000000000088e+01 6.797572179850560497e+04
4.235840000000000316e+01 6.721618771001858113e+04
4.246869999999999834e+01 6.725134497322859534e+04
4.257900000000000063e+01 6.729284329478374275e+04
4.268930000000000291e+01 6.757256508208849118e+04
4.279959999999999809e+01 6.817104787884274265e+04
4.290990000000000038e+01 6.966248828337258601e+04
4.302020000000000266e+01 6.965724816512933467e+04
4.313049999999999784e+01 6.988629365407061414e+04
4.324090000000000344e+01 7.004279500429768814e+04
4.335119999999999862e+01 6.948219465213124931e+04
4.346150000000000091e+01 6.826763691397869843e+04
4.357180000000000319e+01 6.737160874503797095e+04
4.368209999999999837e+01 6.532621408223392064e+04
4.379240000000000066e+01 6.504688028065663821e+04
4.390270000000000294e+01 6.363780964275970473e+04
