# energy(eV) alpha
0.000000000000000000e+00 0.000000000000000000e+00
3.280000000000000276e-02 2.560400221066944648e-01
6.560000000000000553e-02 9.601287236713654805e-01
9.840000000000000135e-02 2.208222379119251233e+00
1.313000000000000000e-01 3.843121530362894500e+00
1.640999999999999959e-01 6.083677263738457519e+00
1.968999999999999917e-01 8.835707299995336328e+00
2.296999999999999875e-01 1.187513148688145037e+01
2.625000000000000111e-01 1.561761982605585253e+01
2.953000000000000069e-01 1.987090135240032751e+01
3.281999999999999917e-01 2.432200092828252025e+01
3.609999999999999876e-01 2.991631797252307479e+01
3.937999999999999834e-01 3.493265623734809822e+01
4.265999999999999792e-01 4.157748624803478776e+01
4.593999999999999750e-01 4.789941721868758151e+01
4.922000000000000264e-01 5.514526239879780434e+01
5.250000000000000222e-01 6.289835444888758076e+01
5.578999999999999515e-01 7.117073646924231412e+01
5.907000000000000028e-01 8.051243827372283590e+01
6.235000000000000542e-01 8.920902242834691265e+01
6.562999999999999945e-01 9.898544909544378356e+01
6.891000000000000458e-01 1.099356328108477641e+02
7.218999999999999861e-01 1.207496484237180141e+02
7.547000000000000375e-01 1.313307011708221239e+02
7.875999999999999668e-01 1.439000752597941641e+02
8.204000000000000181e-01 1.570131566460275110e+02
8.531999999999999584e-01 1.698608507820842135e+02
8.860000000000000098e-01 1.840639159764861006e+02
9.187999999999999501e-01 1.988289938276051032e+02
9.516000000000000014e-01 2.132265000940127209e+02
9.845000000000000417e-01 2.290962611762776078e+02
1.017300000000000093e+00 2.454984258173884371e+02
1.050100000000000033e+00 2.624524370173232910e+02
1.082899999999999974e+00 2.799595021257838425e+02
1.115699999999999914e+00 2.980182804764233424e+02
1.148500000000000076e+00 3.177331608701293817e+02
1.181300000000000017e+00 3.380604762329596156e+02
1.214199999999999946e+00 3.578454880585136380e+02
1.247000000000000108e+00 3.781506321669595536e+02
1.279800000000000049e+00 4.002280596053321915e+02
1.312599999999999989e+00 4.241701951016046905e+02
1.345399999999999929e+00 4.474803153943256007e+02
1.378200000000000092e+00 4.700542024276892334e+02
1.411000000000000032e+00 4.972389790105273732e+02
1.443899999999999961e+00 5.210011769965237818e+02
1.476699999999999902e+00 5.495157444613603275e+02
1.509500000000000064e+00 5.758382139855084461e+02
1.542300000000000004e+00 6.042224957191200474e+02
1.575099999999999945e+00 6.347534306451854036e+02
1.607900000000000107e+00 6.644493025686533656e+02
1.640800000000000036e+00 6.963886053484077365e+02
1.673599999999999977e+00 7.289722073601686816e+02
1.706399999999999917e+00 7.622454406416231905e+02
1.739200000000000079e+00 7.978630851551613432e+02
1.772000000000000020e+00 8.325268899427479710e+02
1.804799999999999960e+00 8.678652416317421512e+02
1.837599999999999900e+00 9.073776202764458958e+02
1.870500000000000052e+00 9.459445607822260627e+02
1.903299999999999992e+00 9.869843247886005884e+02
1.936099999999999932e+00 1.028799497984040045e+03
1.968900000000000095e+00 1.069515618858632479e+03
2.001700000000000035e+00 1.114731363850357184e+03
2.034499999999999975e+00 1.160754019965795578e+03
2.067299999999999915e+00 1.209553158418666726e+03
2.100200000000000067e+00 1.257285530840316142e+03
2.133000000000000007e+00 1.305748061690804207e+03
2.165799999999999947e+00 1.359086904794480006e+03
2.198599999999999888e+00 1.411243139879400815e+03
2.231399999999999828e+00 1.466332719365351522e+03
2.264200000000000212e+00 1.524426076854722396e+03
2.297099999999999920e+00 1.583519685846403718e+03
2.329899999999999860e+00 1.645638229784226723e+03
2.362699999999999800e+00 1.708727581680842377e+03
2.395500000000000185e+00 1.772761514279491394e+03
2.428300000000000125e+00 1.842267539444529348e+03
2.461100000000000065e+00 1.912817676792254588e+03
2.493900000000000006e+00 1.984391745632640550e+03
2.526800000000000157e+00 2.059410817137024878e+03
2.559600000000000097e+00 2.135395006759300941e+03
2.592400000000000038e+00 2.217242718480950771e+03
2.625199999999999978e+00 2.297785896223528198e+03
2.657999999999999918e+00 2.386750838749563627e+03
2.690799999999999859e+00 2.474434722673749093e+03
2.723599999999999799e+00 2.565764593257188608e+03
2.756499999999999950e+00 2.663410134999760885e+03
2.789299999999999891e+00 2.762233403585878477e+03
2.822099999999999831e+00 2.867446734954434760e+03
2.854900000000000215e+00 2.973941787255326744e+03
2.887700000000000156e+00 3.086988047876650853e+03
2.920500000000000096e+00 3.201387562894897201e+03
2.953399999999999803e+00 3.325278569592831900e+03
2.986200000000000188e+00 3.453210397701727288e+03
3.019000000000000128e+00 3.585322210862482734e+03
3.051800000000000068e+00 3.724382742132364911e+03
3.084600000000000009e+00 3.867772355611737112e+03
3.117399999999999949e+00 4.018302509842941618e+03
3.150199999999999889e+00 4.176039785008104445e+03
3.183100000000000041e+00 4.341219299152142412e+03
3.215899999999999981e+00 4.516565286746113998e+03
3.248699999999999921e+00 4.696507897896174654e+03
3.281499999999999861e+00 4.889826898786457605e+03
3.314299999999999802e+00 5.090823958429486993e+03
3.347100000000000186e+00 5.302559374627859142e+03
3.379900000000000126e+00 5.528025985519396272e+03
3.412799999999999834e+00 5.767647424574952311e+03
3.445600000000000218e+00 6.021186437838374331e+03
3.478400000000000158e+00 6.285864141141601976e+03
3.511200000000000099e+00 6.567866352718649978e+03
3.544000000000000039e+00 6.870435472704922176e+03
3.576799999999999979e+00 7.196839322137546333e+03
3.609700000000000131e+00 7.544329148973748488e+03
3.642500000000000071e+00 7.918913113558510304e+03
3.675300000000000011e+00 8.324097667920637832e+03
3.708099999999999952e+00 8.769589322851401448e+03
3.740899999999999892e+00 9.255606272938255643e+03
3.773699999999999832e+00 9.788782190478665143e+03
3.806500000000000217e+00 1.038849461345040072e+04
3.839399999999999924e+00 1.106517346635534523e+04
3.872199999999999864e+00 1.183161010139666178e+04
3.904999999999999805e+00 1.270805062269660084e+04
3.937800000000000189e+00 1.371111477432044921e+04
3.970600000000000129e+00 1.489025173756367803e+04
4.003400000000000070e+00 1.627648347093623670e+04
4.036200000000000010e+00 1.787136346725921612e+04
4.069099999999999717e+00 1.964285308770776828e+04
4.101899999999999658e+00 2.164534676442668206e+04
4.134699999999999598e+00 2.393308448013360248e+04
4.167500000000000426e+00 2.650140428664295177e+04
4.200300000000000367e+00 2.930677024462512782e+04
4.233100000000000307e+00 3.234549347179605684e+04
4.266000000000000014e+00 3.573690087043948006e+04
4.298799999999999955e+00 3.963687826378586760e+04
4.331599999999999895e+00 4.418347821972602105e+04
4.364399999999999835e+00 4.948846525378787192e+04
4.397199999999999775e+00 5.564252307988274697e+04
4.429999999999999716e+00 6.271147812177706510e+04
4.462799999999999656e+00 7.065469890906898945e+04
4.495700000000000252e+00 7.940553747847917839e+04
4.528500000000000192e+00 8.904433865011022135e+04
4.561300000000000132e+00 9.975429425058737979e+04
4.594100000000000072e+00 1.115982753511905030e+05
4.626900000000000013e+00 1.243368822423666134e+05
4.659699999999999953e+00 1.375356172106765443e+05
4.692499999999999893e+00 1.509542079675180430e+05
4.725399999999999601e+00 1.646866855184807209e+05
4.758200000000000429e+00 1.786739113504755369e+05
4.791000000000000369e+00 1.925758149047053012e+05
4.823800000000000310e+00 2.061700074070834671e+05
4.856600000000000250e+00 2.193925462031001225e+05
4.889400000000000190e+00 2.319058007517962251e+05
4.922299999999999898e+00 2.431835816817996092e+05
4.955099999999999838e+00 2.534129375659201469e+05
4.987899999999999778e+00 2.636745829514108482e+05
5.020699999999999719e+00 2.748691004122069571e+05
5.053499999999999659e+00 2.871775028623953694e+05
5.086299999999999599e+00 3.002611144454125315e+05
5.119100000000000428e+00 3.135796586289973347e+05
5.152000000000000135e+00 3.266119537701369263e+05
5.184800000000000075e+00 3.392350124078472727e+05
5.217600000000000016e+00 3.518156918757798267e+05
5.250399999999999956e+00 3.646468522669898812e+05
5.283199999999999896e+00 3.773503865643270547e+05
5.315999999999999837e+00 3.892013215589979663e+05
5.348799999999999777e+00 3.998981242257179692e+05
5.381700000000000372e+00 4.095472456888263114e+05
5.414500000000000313e+00 4.182084966217736946e+05
5.447300000000000253e+00 4.259045106493994244e+05
5.480100000000000193e+00 4.326437792553101317e+05
5.512900000000000134e+00 4.385116314680347568e+05
5.545700000000000074e+00 4.437459503581476747e+05
5.578599999999999781e+00 4.486285213912998443e+05
5.611399999999999721e+00 4.532373087777529145e+05
5.644199999999999662e+00 4.576529605969502591e+05
5.676999999999999602e+00 4.621928364161254722e+05
5.709800000000000431e+00 4.673219669305791613e+05
5.742600000000000371e+00 4.732175942101547262e+05
5.775400000000000311e+00 4.797025232794289477e+05
5.808300000000000018e+00 4.867094022976167616e+05
5.841099999999999959e+00 4.947109945130268461e+05
5.873899999999999899e+00 5.042037082922033733e+05
5.906699999999999839e+00 5.149353294649814488e+05
5.939499999999999780e+00 5.261325547027019784e+05
5.972299999999999720e+00 5.372402845351651777e+05
6.005099999999999660e+00 5.481564032948635286e+05
6.038000000000000256e+00 5.589927681082866620e+05
6.070800000000000196e+00 5.700642518363634590e+05
6.103600000000000136e+00 5.814523708255012752e+05
6.136400000000000077e+00 5.926526781057652552e+05
6.169200000000000017e+00 6.032225540964752436e+05
6.201999999999999957e+00 6.132925989262874937e+05
6.234899999999999665e+00 6.228844866050384007e+05
6.267699999999999605e+00 6.317389820040850900e+05
6.300500000000000433e+00 6.398192948626599973e+05
6.333300000000000374e+00 6.472713005636286689e+05
6.366100000000000314e+00 6.540529413809112739e+05
6.398900000000000254e+00 6.601313420917692129e+05
6.431700000000000195e+00 6.657308616685789311e+05
6.464599999999999902e+00 6.712454052543018479e+05
6.497399999999999842e+00 6.769541255808102433e+05
6.530199999999999783e+00 6.829373709556862013e+05
6.562999999999999723e+00 6.888943644120708341e+05
6.595799999999999663e+00 6.942708902496787487e+05
6.628599999999999604e+00 6.987401986240618862e+05
6.661400000000000432e+00 7.025960401289383881e+05
6.694300000000000139e+00 7.063463737165388884e+05
6.727100000000000080e+00 7.099129061274367850e+05
6.759900000000000020e+00 7.129343604512168095e+05
6.792699999999999960e+00 7.153972958362367935e+05
6.825499999999999901e+00 7.177315022776868427e+05
6.858299999999999841e+00 7.200626517271456541e+05
6.891200000000000436e+00 7.218943896683515050e+05
6.924000000000000377e+00 7.227385178076149896e+05
6.956800000000000317e+00 7.228158003433479462e+05
6.989600000000000257e+00 7.225671309066361282e+05
7.022400000000000198e+00 7.223325099460876081e+05
7.055200000000000138e+00 7.221819098178436980e+05
7.088000000000000078e+00 7.222312031523894984e+05
7.120899999999999785e+00 7.224479404097428778e+05
7.153699999999999726e+00 7.226485957096824422e+05
7.186499999999999666e+00 7.231151814324501902e+05
7.219299999999999606e+00 7.241052793601461453e+05
7.252100000000000435e+00 7.252715950743040303e+05
7.284900000000000375e+00 7.258709141780425562e+05
7.317700000000000315e+00 7.257059856099206954e+05
7.350600000000000023e+00 7.253404149081972428e+05
7.383399999999999963e+00 7.254806572196545312e+05
7.416199999999999903e+00 7.263501211445822846e+05
7.448999999999999844e+00 7.276847737254454987e+05
7.481799999999999784e+00 7.293185800736164674e+05
7.514599999999999724e+00 7.314191853865286103e+05
7.547500000000000320e+00 7.338573568369410932e+05
7.580300000000000260e+00 7.358792945217658998e+05
7.613100000000000200e+00 7.367774600173451472e+05
7.645900000000000141e+00 7.365323176195578417e+05
7.678700000000000081e+00 7.354801697574537247e+05
7.711500000000000021e+00 7.336553448195303790e+05
7.744299999999999962e+00 7.309402823422653601e+05
7.777199999999999669e+00 7.274647986875225324e+05
7.809999999999999609e+00 7.235664562294260832e+05
7.842800000000000438e+00 7.196161142235340085e+05
7.875600000000000378e+00 7.159969636118597118e+05
7.908400000000000318e+00 7.132211701941880165e+05
7.941200000000000259e+00 7.115483010362682398e+05
7.974000000000000199e+00 7.106333438177729258e+05
8.006899999999999906e+00 7.099218452461656416e+05
8.039699999999999847e+00 7.091997061266655801e+05
8.072499999999999787e+00 7.085731771969271358e+05
8.105299999999999727e+00 7.081154683854044415e+05
8.138099999999999667e+00 7.078112414256774355e+05
8.170899999999999608e+00 7.076421320678306511e+05
8.203799999999999315e+00 7.076646195979639888e+05
8.236599999999999255e+00 7.078349842764163623e+05
8.269399999999999196e+00 7.080541049959688680e+05
8.302199999999999136e+00 7.081521017603743821e+05
8.335000000000000853e+00 7.080194688851381652e+05
8.367800000000000793e+00 7.077237871593905147e+05
8.400600000000000733e+00 7.074630429284464335e+05
8.433500000000000441e+00 7.074183857362249400e+05
8.466300000000000381e+00 7.076953470232674154e+05
8.499100000000000321e+00 7.083883179359175265e+05
8.531900000000000261e+00 7.095743162220801460e+05
8.564700000000000202e+00 7.112571456553216558e+05
8.597500000000000142e+00 7.134629969687757548e+05
8.630300000000000082e+00 7.162443136163947638e+05
8.663199999999999790e+00 7.196928229518772569e+05
8.695999999999999730e+00 7.238608270518336212e+05
8.728799999999999670e+00 7.285327434694013791e+05
8.761599999999999611e+00 7.333421111592210364e+05
8.794399999999999551e+00 7.377407761883737985e+05
8.827199999999999491e+00 7.415417274935010355e+05
8.860099999999999199e+00 7.448796097218620125e+05
8.892899999999999139e+00 7.477449968458319781e+05
8.925700000000000855e+00 7.498744914999514585e+05
8.958500000000000796e+00 7.510663260822230950e+05
8.991300000000000736e+00 7.513333856015757192e+05
9.024100000000000676e+00 7.509899192076552426e+05
9.056900000000000617e+00 7.501419655162332347e+05
9.089800000000000324e+00 7.488094775270855753e+05
9.122600000000000264e+00 7.471666618667144794e+05
9.155400000000000205e+00 7.455861678861475084e+05
9.188200000000000145e+00 7.440861212995963870e+05
9.221000000000000085e+00 7.424697498278808780e+05
9.253800000000000026e+00 7.404355116538618458e+05
9.286599999999999966e+00 7.377169188855804969e+05
9.319499999999999673e+00 7.342294739567496581e+05
9.352299999999999613e+00 7.302877242031699279e+05
9.385099999999999554e+00 7.263492832713439129e+05
9.417899999999999494e+00 7.226671415058574639e+05
9.450699999999999434e+00 7.192661601049479796e+05
9.483499999999999375e+00 7.161802176352305105e+05
9.516400000000000858e+00 7.134012682942486135e+05
9.549200000000000799e+00 7.111100580256163375e+05
9.582000000000000739e+00 7.095876203848953592e+05
9.614800000000000679e+00 7.088456892315341393e+05
9.647600000000000620e+00 7.084754714070045156e+05
9.680400000000000560e+00 7.079843258968568407e+05
9.713200000000000500e+00 7.072693803543007234e+05
9.746100000000000207e+00 7.064739064161711140e+05
9.778900000000000148e+00 7.056152037952918326e+05
9.811700000000000088e+00 7.046286706842276035e+05
9.844500000000000028e+00 7.035946754392675357e+05
9.877299999999999969e+00 7.025357668144314084e+05
9.910099999999999909e+00 7.012995778243220411e+05
9.942999999999999616e+00 6.999364856077668956e+05
9.975799999999999557e+00 6.985753539076963207e+05
1.000859999999999950e+01 6.974861790182492696e+05
1.004139999999999944e+01 6.969127853855802678e+05
1.007419999999999938e+01 6.970565692476328695e+05
1.010699999999999932e+01 6.979394956561248982e+05
1.013979999999999926e+01 6.993898351102152374e+05
1.017270000000000074e+01 7.011234814159019152e+05
1.020550000000000068e+01 7.027163844191851094e+05
1.023830000000000062e+01 7.036354886428075843e+05
1.027110000000000056e+01 7.036591063990850234e+05
1.030390000000000050e+01 7.028131755100718001e+05
1.033670000000000044e+01 7.013925997931763995e+05
1.036950000000000038e+01 6.995922423004251905e+05
1.040240000000000009e+01 6.975868905899337260e+05
1.043520000000000003e+01 6.954839275011030259e+05
1.046799999999999997e+01 6.931987876799001824e+05
1.050079999999999991e+01 6.903754822978881421e+05
1.053359999999999985e+01 6.866667254742871737e+05
1.056639999999999979e+01 6.821782778660352342e+05
1.059929999999999950e+01 6.772365737273894483e+05
1.063209999999999944e+01 6.723056809421589132e+05
1.066489999999999938e+01 6.679378888706115540e+05
1.069769999999999932e+01 6.644553917425377294e+05
1.073049999999999926e+01 6.618329286905215122e+05
1.076329999999999920e+01 6.599569685636473587e+05
1.079609999999999914e+01 6.587950937531722011e+05
1.082900000000000063e+01 6.581016932179959258e+05
1.086180000000000057e+01 6.574698107666955329e+05
1.089460000000000051e+01 6.569373099262700416e+05
1.092740000000000045e+01 6.565460358789071906e+05
1.096020000000000039e+01 6.560315900046138559e+05
1.099300000000000033e+01 6.549251373109697597e+05
1.102580000000000027e+01 6.529499913540148409e+05
1.105869999999999997e+01 6.504806120626137126e+05
1.109149999999999991e+01 6.481582840007712366e+05
1.112429999999999986e+01 6.463965299927382730e+05
1.115709999999999980e+01 6.451307036740753101e+05
1.118989999999999974e+01 6.437689320606525289e+05
1.122269999999999968e+01 6.419800268492687028e+05
1.125559999999999938e+01 6.402472464369346853e+05
1.128839999999999932e+01 6.394973491577786626e+05
1.132119999999999926e+01 6.403238307984279236e+05
1.135399999999999920e+01 6.428119078719408717e+05
1.138679999999999914e+01 6.466402245734827593e+05
1.141960000000000086e+01 6.509892812759649241e+05
1.145240000000000080e+01 6.552780467137534870e+05
1.148530000000000051e+01 6.592234629746754654e+05
1.151810000000000045e+01 6.628562249862315366e+05
1.155090000000000039e+01 6.664069122566671576e+05
1.158370000000000033e+01 6.701686298274181318e+05
1.161650000000000027e+01 6.742923919518947368e+05
1.164930000000000021e+01 6.787115423815877875e+05
1.168210000000000015e+01 6.833535115973871434e+05
1.171499999999999986e+01 6.879117020400430774e+05
1.174779999999999980e+01 6.922105322469362291e+05
1.178059999999999974e+01 6.961863173973526573e+05
1.181339999999999968e+01 6.997954351924821967e+05
1.184619999999999962e+01 7.029094188589922851e+05
1.187899999999999956e+01 7.054377020046578255e+05
1.191189999999999927e+01 7.075514376203120919e+05
1.194469999999999921e+01 7.096042720212690765e+05
1.197749999999999915e+01 7.121496522624529898e+05
1.201030000000000086e+01 7.156313645599776646e+05
1.204310000000000080e+01 7.200889575448723044e+05
1.207590000000000074e+01 7.251582520408048294e+05
1.210870000000000068e+01 7.304566024043071084e+05
1.214160000000000039e+01 7.358505930763810175e+05
1.217440000000000033e+01 7.415668120427255053e+05
1.220720000000000027e+01 7.474845301056472817e+05
1.224000000000000021e+01 7.531172592142926296e+05
1.227280000000000015e+01 7.579663433000745717e+05
1.230560000000000009e+01 7.619066678109331988e+05
1.233840000000000003e+01 7.651075264975517057e+05
1.237129999999999974e+01 7.676570729012191296e+05
1.240409999999999968e+01 7.694645198144706665e+05
1.243689999999999962e+01 7.705604030587765155e+05
1.246969999999999956e+01 7.711373226639617933e+05
1.250249999999999950e+01 7.712087377021714346e+05
1.253529999999999944e+01 7.708571637671286007e+05
1.256819999999999915e+01 7.698826077064770507e+05
1.260100000000000087e+01 7.678946103835300310e+05
1.263380000000000081e+01 7.649192882818899816e+05
1.266660000000000075e+01 7.615960240526569542e+05
1.269940000000000069e+01 7.587867270877495175e+05
1.273220000000000063e+01 7.570684279401493259e+05
1.276500000000000057e+01 7.568754535368748475e+05
1.279790000000000028e+01 7.582915980506775668e+05
1.283070000000000022e+01 7.608073113997641485e+05
1.286350000000000016e+01 7.637881362122822320e+05
1.289630000000000010e+01 7.670153766327602789e+05
1.292910000000000004e+01 7.704619778246147325e+05
1.296189999999999998e+01 7.737301924322159030e+05
1.299469999999999992e+01 7.763429920290949522e+05
1.302759999999999962e+01 7.780911042496684240e+05
1.306039999999999957e+01 7.790303151938907104e+05
