# energy(eV) alpha
0.000000000000000000e+00 0.000000000000000000e+00
4.000000000000000083e-02 1.352419518483212624e+00
8.000000000000000167e-02 5.409140769922275993e+00
1.199999999999999956e-01 1.216858484762248160e+01
1.600000000000000033e-01 2.176002313072227423e+01
2.000000000000000111e-01 3.411365297849695821e+01
2.399000000000000021e-01 4.920403795633330191e+01
2.798999999999999821e-01 6.729317630104006298e+01
3.199000000000000177e-01 8.819204114976875530e+01
3.598999999999999977e-01 1.124838482178628709e+02
3.998999999999999777e-01 1.396975683366352143e+02
4.399000000000000132e-01 1.701845468421875864e+02
4.798999999999999932e-01 2.040275118676296131e+02
5.199000000000000288e-01 2.413110670503120332e+02
5.598999999999999533e-01 2.821148114060742955e+02
5.998999999999999888e-01 3.274997970412780433e+02
6.399000000000000243e-01 3.761651978683735251e+02
6.798999999999999488e-01 4.286439386302744197e+02
7.197999999999999954e-01 4.867038968504937770e+02
7.598000000000000309e-01 5.495860524153549704e+02
7.997999999999999554e-01 6.167337461584535276e+02
8.397999999999999909e-01 6.909410844515891768e+02
8.798000000000000265e-01 7.697783897972025215e+02
9.197999999999999510e-01 8.555373284449302673e+02
9.597999999999999865e-01 9.485291343636818056e+02
9.998000000000000220e-01 1.049075473789035186e+03
1.039800000000000058e+00 1.158307499271777488e+03
1.079800000000000093e+00 1.276615786951940208e+03
1.119799999999999907e+00 1.405263034991982749e+03
1.159699999999999953e+00 1.547342340395023939e+03
1.199699999999999989e+00 1.700924135822114295e+03
1.239700000000000024e+00 1.871217436313254211e+03
1.279700000000000060e+00 2.058004812355157355e+03
1.319700000000000095e+00 2.266149015214695737e+03
1.359699999999999909e+00 2.498759625122185753e+03
1.399699999999999944e+00 2.761310703450407800e+03
1.439699999999999980e+00 3.058498081055945931e+03
1.479700000000000015e+00 3.400999910371539499e+03
1.519700000000000051e+00 3.799023096309062112e+03
1.559700000000000086e+00 4.272936206244055029e+03
1.599699999999999900e+00 4.846719305198987058e+03
1.639599999999999946e+00 5.565369825902302182e+03
1.679599999999999982e+00 6.494004766115600432e+03
1.719600000000000017e+00 7.746935269113587310e+03
1.759600000000000053e+00 9.519844390555355858e+03
1.799600000000000088e+00 1.209751186959329425e+04
1.839599999999999902e+00 1.566402457036625674e+04
1.879599999999999937e+00 1.961376341558561762e+04
1.919599999999999973e+00 2.250340968279638400e+04
1.959600000000000009e+00 2.356236841928226568e+04
1.999600000000000044e+00 2.337523619640907418e+04
2.039600000000000080e+00 2.385288049890856564e+04
2.079600000000000115e+00 2.658506221221235683e+04
2.119499999999999940e+00 3.250667869088844236e+04
2.159499999999999975e+00 4.220135012514537084e+04
2.199500000000000011e+00 5.428358021071566327e+04
2.239500000000000046e+00 6.427406476863247372e+04
2.279500000000000082e+00 6.712570418921984674e+04
2.319500000000000117e+00 6.162938572572878184e+04
2.359500000000000153e+00 5.451769127600610227e+04
2.399500000000000188e+00 5.190624262679385720e+04
2.439499999999999780e+00 5.545902931137354608e+04
2.479499999999999815e+00 6.582418513182495371e+04
2.519499999999999851e+00 8.312371543733870203e+04
2.559400000000000119e+00 1.031087325217847101e+05
2.599400000000000155e+00 1.151569293362841418e+05
2.639400000000000190e+00 1.122909758920268650e+05
2.679399999999999782e+00 1.018759845788602834e+05
2.719399999999999817e+00 9.425265868827265513e+04
2.759399999999999853e+00 9.335785027751229063e+04
2.799399999999999888e+00 9.961623436273950210e+04
2.839399999999999924e+00 1.140194619643091137e+05
2.879399999999999959e+00 1.363126623594844132e+05
2.919399999999999995e+00 1.627016441454185115e+05
2.959400000000000031e+00 1.852883616388349619e+05
2.999400000000000066e+00 1.965315579913992842e+05
3.039299999999999891e+00 1.955067530959408032e+05
3.079299999999999926e+00 1.896230690954672173e+05
3.119299999999999962e+00 1.882779267099294229e+05
3.159299999999999997e+00 1.948699395738604944e+05
3.199300000000000033e+00 2.051673872917872213e+05
3.239300000000000068e+00 2.145614791286879918e+05
3.279300000000000104e+00 2.234377588884476863e+05
3.319300000000000139e+00 2.307698262944086455e+05
3.359300000000000175e+00 2.324852502226677025e+05
3.399300000000000210e+00 2.357657850592729519e+05
3.439299999999999802e+00 2.463589940377367020e+05
3.479200000000000070e+00 2.564865512650739111e+05
3.519200000000000106e+00 2.567138568989783817e+05
3.559200000000000141e+00 2.432262572735000285e+05
3.599200000000000177e+00 2.273509120208925160e+05
3.639200000000000212e+00 2.233932448308508319e+05
3.679199999999999804e+00 2.352305947892462718e+05
3.719199999999999839e+00 2.579142451051575190e+05
3.759199999999999875e+00 2.846304227393493638e+05
3.799199999999999910e+00 3.125125596284307539e+05
3.839199999999999946e+00 3.381273472118019126e+05
3.879199999999999982e+00 3.572656904258568538e+05
3.919200000000000017e+00 3.669421390416115173e+05
3.959099999999999842e+00 3.622033467712875572e+05
3.999099999999999877e+00 3.514553270105544361e+05
4.039100000000000357e+00 3.464353099739798927e+05
4.079100000000000392e+00 3.541904971036069328e+05
4.119100000000000428e+00 3.755961957217729068e+05
4.159099999999999575e+00 4.002461668781497283e+05
4.199099999999999611e+00 4.207488199102682411e+05
4.239099999999999646e+00 4.362548122498447774e+05
4.279099999999999682e+00 4.453247928202424082e+05
4.319099999999999717e+00 4.438508178272844525e+05
4.359099999999999753e+00 4.347524694330406492e+05
4.399099999999999788e+00 4.250487604254407925e+05
4.439000000000000057e+00 4.205444592366534634e+05
4.479000000000000092e+00 4.243305124962201226e+05
4.519000000000000128e+00 4.386099930183821707e+05
4.559000000000000163e+00 4.639991897902989876e+05
4.599000000000000199e+00 4.946057256714757532e+05
4.639000000000000234e+00 5.199862855174026918e+05
4.679000000000000270e+00 5.339540883988214191e+05
4.719000000000000306e+00 5.348189537811654154e+05
4.759000000000000341e+00 5.286768956449090037e+05
4.799000000000000377e+00 5.251592437514973572e+05
4.839000000000000412e+00 5.288925302018896909e+05
4.878899999999999793e+00 5.377214363473247504e+05
4.918899999999999828e+00 5.462539658682486042e+05
4.958899999999999864e+00 5.499679004195906455e+05
4.998899999999999899e+00 5.470829362678233301e+05
5.038899999999999935e+00 5.395768715942213312e+05
5.078899999999999970e+00 5.315763257781240391e+05
5.118900000000000006e+00 5.290142906645672629e+05
5.158900000000000041e+00 5.352129018789532129e+05
5.198900000000000077e+00 5.476427912380131893e+05
5.238900000000000112e+00 5.625561962606639136e+05
5.278900000000000148e+00 5.753800864683102118e+05
5.318900000000000183e+00 5.815131479600234888e+05
5.358799999999999564e+00 5.829005542278925423e+05
5.398799999999999599e+00 5.826474541287448956e+05
5.438799999999999635e+00 5.812351306576322531e+05
5.478799999999999670e+00 5.785203141963818343e+05
5.518799999999999706e+00 5.756265860250827391e+05
5.558799999999999741e+00 5.733862400786813814e+05
5.598799999999999777e+00 5.720387226864846889e+05
5.638799999999999812e+00 5.706381273794076405e+05
5.678799999999999848e+00 5.671749865439489949e+05
5.718799999999999883e+00 5.608754818483114941e+05
5.758799999999999919e+00 5.516163826614931459e+05
5.798700000000000188e+00 5.395303860126730287e+05
5.838700000000000223e+00 5.239234456196179963e+05
5.878700000000000259e+00 5.054363666176160332e+05
5.918700000000000294e+00 4.867149798393233214e+05
5.958700000000000330e+00 4.695188962725072051e+05
5.998700000000000365e+00 4.545707134262038744e+05
6.038700000000000401e+00 4.421244721604106016e+05
6.078700000000000436e+00 4.308620217807438457e+05
6.118699999999999584e+00 4.191716455449812929e+05
6.158699999999999619e+00 4.075005305332017015e+05
6.198699999999999655e+00 3.973798722600045730e+05
6.238699999999999690e+00 3.898474578590243473e+05
6.278599999999999959e+00 3.856244811855469598e+05
6.318599999999999994e+00 3.840436661375422264e+05
6.358600000000000030e+00 3.833152759363260120e+05
6.398600000000000065e+00 3.823441241845646873e+05
6.438600000000000101e+00 3.813576792236049077e+05
6.478600000000000136e+00 3.817761926795608015e+05
6.518600000000000172e+00 3.845475053817004664e+05
6.558600000000000207e+00 3.892904973509482224e+05
6.598600000000000243e+00 3.952311393885884318e+05
6.638600000000000279e+00 4.028748641628563637e+05
6.678600000000000314e+00 4.128564642628341680e+05
6.718499999999999694e+00 4.245655831607687869e+05
6.758499999999999730e+00 4.363070522845105734e+05
6.798499999999999766e+00 4.475408090142494184e+05
6.838499999999999801e+00 4.584251606569312862e+05
6.878499999999999837e+00 4.694624799308333895e+05
6.918499999999999872e+00 4.831590446268909727e+05
6.958499999999999908e+00 5.016731687699027243e+05
6.998499999999999943e+00 5.238746273497530492e+05
7.038499999999999979e+00 5.468366029636556050e+05
7.078500000000000014e+00 5.671650317356840242e+05
7.118500000000000050e+00 5.820398696955670603e+05
7.158500000000000085e+00 5.922638047199263237e+05
7.198400000000000354e+00 5.992949266165765002e+05
7.238400000000000389e+00 6.033153462530071847e+05
7.278400000000000425e+00 6.046347750671962276e+05
7.318399999999999572e+00 6.039736283865721198e+05
7.358399999999999608e+00 6.015491370279530529e+05
7.398399999999999643e+00 5.983150318458629772e+05
7.438399999999999679e+00 5.966267457454254618e+05
7.478399999999999714e+00 5.977477453309006523e+05
7.518399999999999750e+00 6.018535181568991393e+05
7.558399999999999785e+00 6.089383909394000657e+05
7.598399999999999821e+00 6.182035414344025776e+05
7.638399999999999856e+00 6.277194663413857343e+05
7.678300000000000125e+00 6.369181890329689486e+05
7.718300000000000161e+00 6.466151026395225199e+05
7.758300000000000196e+00 6.559399841354795499e+05
7.798300000000000232e+00 6.622697173743193271e+05
7.838300000000000267e+00 6.652796965349469101e+05
7.878300000000000303e+00 6.680097248725718819e+05
7.918300000000000338e+00 6.722811870765211061e+05
7.958300000000000374e+00 6.766362204988443991e+05
7.998300000000000409e+00 6.797621338962761220e+05
8.038299999999999557e+00 6.818828494873237796e+05
8.078300000000000480e+00 6.839284194200353231e+05
8.118199999999999861e+00 6.866509197411042405e+05
8.158200000000000784e+00 6.909383097742659738e+05
8.198199999999999932e+00 6.971991425328954356e+05
8.238200000000000855e+00 7.044672859791429946e+05
8.278200000000000003e+00 7.117178023139144061e+05
8.318199999999999150e+00 7.185796081232161960e+05
8.358200000000000074e+00 7.246381813237176975e+05
8.398199999999999221e+00 7.293569412486496149e+05
8.438200000000000145e+00 7.328878818803952308e+05
8.478199999999999292e+00 7.366578860436955001e+05
8.518200000000000216e+00 7.423072904864426237e+05
8.558199999999999363e+00 7.496981752884632442e+05
8.598100000000000520e+00 7.576214303733643610e+05
8.638099999999999667e+00 7.656389875737656839e+05
8.678100000000000591e+00 7.728828331133499742e+05
8.718099999999999739e+00 7.782888387890189188e+05
8.758100000000000662e+00 7.822955110194089357e+05
8.798099999999999810e+00 7.854351494987950427e+05
8.838100000000000733e+00 7.871838056537635857e+05
8.878099999999999881e+00 7.849864483155845664e+05
8.918100000000000804e+00 7.762939462684516329e+05
8.958099999999999952e+00 7.629576798684849637e+05
8.998100000000000875e+00 7.497682164280853467e+05
9.038000000000000256e+00 7.388341881067046197e+05
9.077999999999999403e+00 7.280878392628637375e+05
9.118000000000000327e+00 7.153681494562173029e+05
9.157999999999999474e+00 7.005970648115647491e+05
9.198000000000000398e+00 6.836880133413446601e+05
9.237999999999999545e+00 6.649567244786574738e+05
9.278000000000000469e+00 6.465362074401336722e+05
9.317999999999999616e+00 6.309549358195805689e+05
9.358000000000000540e+00 6.181233657171399100e+05
9.397999999999999687e+00 6.064444333538091742e+05
9.438000000000000611e+00 5.951134969636151800e+05
9.477999999999999758e+00 5.836229472704413347e+05
9.517899999999999139e+00 5.727942857774359873e+05
9.557900000000000063e+00 5.629523119222112000e+05
9.597899999999999210e+00 5.539424518217728473e+05
9.637900000000000134e+00 5.455313071621836862e+05
9.677899999999999281e+00 5.380750696212940384e+05
9.717900000000000205e+00 5.334657849953256082e+05
9.757899999999999352e+00 5.332183079840019345e+05
9.797900000000000276e+00 5.348457125396172050e+05
9.837899999999999423e+00 5.350348181181424297e+05
9.877900000000000347e+00 5.355723179536771495e+05
9.917899999999999494e+00 5.386092882054615766e+05
9.957900000000000418e+00 5.438686014483786421e+05
9.997799999999999798e+00 5.512696172497620573e+05
1.003780000000000072e+01 5.625527974693775177e+05
1.007779999999999987e+01 5.782109713341498282e+05
1.011780000000000079e+01 5.964656368515217910e+05
1.015779999999999994e+01 6.177446205267513869e+05
1.019780000000000086e+01 6.441609829577375203e+05
1.023780000000000001e+01 6.769971809068962466e+05
1.027779999999999916e+01 7.167164312857846962e+05
1.031780000000000008e+01 7.617704566108812578e+05
1.035779999999999923e+01 8.082821014771544142e+05
1.039780000000000015e+01 8.537256705590899801e+05
1.043769999999999953e+01 8.972965394980770070e+05
1.047770000000000046e+01 9.371741678658392048e+05
1.051769999999999960e+01 9.747976781309057260e+05
1.055770000000000053e+01 1.012559845962672145e+06
1.059769999999999968e+01 1.047113796105025103e+06
1.063770000000000060e+01 1.073516694220455829e+06
1.067769999999999975e+01 1.087478857242418686e+06
1.071770000000000067e+01 1.088817336216124007e+06
1.075769999999999982e+01 1.085161762669287389e+06
1.079770000000000074e+01 1.085529088522469159e+06
1.083769999999999989e+01 1.091708152370891068e+06
1.087770000000000081e+01 1.099725205161421560e+06
1.091760000000000019e+01 1.106039784016855294e+06
1.095759999999999934e+01 1.111656269747610204e+06
1.099760000000000026e+01 1.119648035110026132e+06
1.103759999999999941e+01 1.129109632083167322e+06
1.107760000000000034e+01 1.133550627323349705e+06
1.111759999999999948e+01 1.126844971057078801e+06
1.115760000000000041e+01 1.111510044090803713e+06
1.119759999999999955e+01 1.094334352686965605e+06
1.123760000000000048e+01 1.075039275464783423e+06
1.127759999999999962e+01 1.050982418193403631e+06
1.131760000000000055e+01 1.023256120940168388e+06
1.135749999999999993e+01 9.947794581205262803e+05
1.139750000000000085e+01 9.690461845573825995e+05
1.143750000000000000e+01 9.489904994398501003e+05
1.147749999999999915e+01 9.361424813695707126e+05
1.151750000000000007e+01 9.296364632910959190e+05
1.155749999999999922e+01 9.276089401949073654e+05
1.159750000000000014e+01 9.295340007498342311e+05
1.163749999999999929e+01 9.350424076178540708e+05
1.167750000000000021e+01 9.423139787717844592e+05
1.171749999999999936e+01 9.518135058874527458e+05
1.175750000000000028e+01 9.651721418150815880e+05
1.179749999999999943e+01 9.805581047588026850e+05
1.183740000000000059e+01 9.943493585883271880e+05
1.187739999999999974e+01 1.006386216963300831e+06
1.191740000000000066e+01 1.018173753716415260e+06
1.195739999999999981e+01 1.028376752224494703e+06
1.199740000000000073e+01 1.034624978727355250e+06
1.203739999999999988e+01 1.035494870751071605e+06
1.207740000000000080e+01 1.030949602852565935e+06
1.211739999999999995e+01 1.021637493815142429e+06
1.215740000000000087e+01 1.009338024865615997e+06
1.219740000000000002e+01 9.957133814203891670e+05
1.223739999999999917e+01 9.836458752240486210e+05
1.227730000000000032e+01 9.762730361693602754e+05
1.231729999999999947e+01 9.727942748067657230e+05
1.235730000000000040e+01 9.693236109833552036e+05
1.239729999999999954e+01 9.645427103668607306e+05
1.243730000000000047e+01 9.620682264330681646e+05
1.247729999999999961e+01 9.639019576381623046e+05
1.251730000000000054e+01 9.666998570699359989e+05
1.255729999999999968e+01 9.669018831367806997e+05
1.259730000000000061e+01 9.638184426709163236e+05
1.263729999999999976e+01 9.567917123223911040e+05
1.267730000000000068e+01 9.449874190220941091e+05
1.271729999999999983e+01 9.283993670438863337e+05
1.275719999999999921e+01 9.083773605765542015e+05
1.279720000000000013e+01 8.895785991480917437e+05
1.283719999999999928e+01 8.767731731914993143e+05
1.287720000000000020e+01 8.698877101488714106e+05
1.291719999999999935e+01 8.633504447443363024e+05
1.295720000000000027e+01 8.498804055455372436e+05
1.299719999999999942e+01 8.267770517213614658e+05
1.303720000000000034e+01 7.998293405158562819e+05
1.307719999999999949e+01 7.757065490552148549e+05
1.311720000000000041e+01 7.591199778418741189e+05
1.315719999999999956e+01 7.533668901810056996e+05
1.319720000000000049e+01 7.560765742438306333e+05
1.323709999999999987e+01 7.614454780966138933e+05
1.327710000000000079e+01 7.651401661870790413e+05
1.331709999999999994e+01 7.655373740641899640e+05
1.335710000000000086e+01 7.659233731445471058e+05
1.339710000000000001e+01 7.712433184769510990e+05
1.343709999999999916e+01 7.823390654178751865e+05
1.347710000000000008e+01 7.959521120401308872e+05
1.351709999999999923e+01 8.097516065034117782e+05
1.355710000000000015e+01 8.246093946886900812e+05
1.359709999999999930e+01 8.407521764134943951e+05
1.363710000000000022e+01 8.576655291997991735e+05
1.367699999999999960e+01 8.757382818397000665e+05
1.371700000000000053e+01 8.947752867232626304e+05
1.375699999999999967e+01 9.147774862141222693e+05
1.379700000000000060e+01 9.357793985955691896e+05
1.383699999999999974e+01 9.578438795330011053e+05
1.387700000000000067e+01 9.814764341097001452e+05
1.391699999999999982e+01 1.007209718461882090e+06
1.395700000000000074e+01 1.035469815231324639e+06
1.399699999999999989e+01 1.064828458693864290e+06
1.403700000000000081e+01 1.093491105501830112e+06
1.407699999999999996e+01 1.119968672705798643e+06
1.411700000000000088e+01 1.142135377064950764e+06
1.415690000000000026e+01 1.159097622483666288e+06
1.419689999999999941e+01 1.170584729495601030e+06
1.423690000000000033e+01 1.176698842153403210e+06
1.427689999999999948e+01 1.177719927095262334e+06
1.431690000000000040e+01 1.172314991609337041e+06
1.435689999999999955e+01 1.158519166737284977e+06
1.439690000000000047e+01 1.137594447436434915e+06
1.443689999999999962e+01 1.113005456757168751e+06
1.447690000000000055e+01 1.085880908481427468e+06
1.451689999999999969e+01 1.056262508219949901e+06
1.455690000000000062e+01 1.025727189842464752e+06
1.459680000000000000e+01 9.958628024286825676e+05
1.463679999999999914e+01 9.679826215206130873e+05
1.467680000000000007e+01 9.439909771226258017e+05
1.471679999999999922e+01 9.244392316229438875e+05
1.475680000000000014e+01 9.084668606344726868e+05
1.479679999999999929e+01 8.938531492684837431e+05
1.483680000000000021e+01 8.788338718837046763e+05
1.487679999999999936e+01 8.639058502222874667e+05
1.491680000000000028e+01 8.497047934553580126e+05
1.495679999999999943e+01 8.353466502140439115e+05
1.499680000000000035e+01 8.213097763711300213e+05
1.503679999999999950e+01 8.097739456623151200e+05
1.507670000000000066e+01 8.001632567855668021e+05
1.511669999999999980e+01 7.883961368889666628e+05
1.515670000000000073e+01 7.706480896410384448e+05
1.519669999999999987e+01 7.477997929587538820e+05
1.523670000000000080e+01 7.242102819567782572e+05
1.527669999999999995e+01 7.033791424198676832e+05
1.531670000000000087e+01 6.852469325952894287e+05
1.535670000000000002e+01 6.670661369090506341e+05
1.539669999999999916e+01 6.472775741259335773e+05
1.543670000000000009e+01 6.275277270297575742e+05
1.547669999999999924e+01 6.113297159701985074e+05
1.551670000000000016e+01 5.997596021955156466e+05
1.555659999999999954e+01 5.911985552163277753e+05
1.559660000000000046e+01 5.840926167048149509e+05
1.563659999999999961e+01 5.781689034044359578e+05
1.567660000000000053e+01 5.737223788190358318e+05
1.571659999999999968e+01 5.700841761197904125e+05
1.575660000000000061e+01 5.651576825554673560e+05
1.579659999999999975e+01 5.562973292045894777e+05
1.583660000000000068e+01 5.437847883536479203e+05
1.587659999999999982e+01 5.313822240517216269e+05
1.591660000000000075e+01 5.224346540366501431e+05
