# energy(eV) alpha
0.000000000000000000e+00 0.000000000000000000e+00
1.205999999999999989e-01 1.715458513413578023e+00
2.411999999999999977e-01 7.105785625515616211e+00
3.618000000000000105e-01 1.616759783205310086e+01
4.823999999999999955e-01 2.889491382564877142e+01
6.029999999999999805e-01 4.527981765476531706e+01
7.235000000000000320e-01 6.456854645700455819e+01
8.440999999999999615e-01 8.811119570635061393e+01
9.647000000000000020e-01 1.162486073342360839e+02
1.085299999999999931e+00 1.493265415627321602e+02
1.205899999999999972e+00 1.840307558384934339e+02
1.326500000000000012e+00 2.249671935908830562e+02
1.447100000000000053e+00 2.713698633661019244e+02
1.567700000000000093e+00 3.219868408946592240e+02
1.688299999999999912e+00 3.767776843588962947e+02
1.808899999999999952e+00 4.393376521863593211e+02
1.929499999999999993e+00 5.064530325340690524e+02
2.049999999999999822e+00 5.821424087866424770e+02
2.170599999999999863e+00 6.627690946057796282e+02
2.291199999999999903e+00 7.527879971463686388e+02
2.411799999999999944e+00 8.480260687318284454e+02
2.532399999999999984e+00 9.534097801096930880e+02
2.653000000000000025e+00 1.069501718272512790e+03
2.773600000000000065e+00 1.194132018446443908e+03
2.894200000000000106e+00 1.330342844677421454e+03
3.014800000000000146e+00 1.484528985900212319e+03
3.135400000000000187e+00 1.648636075881745683e+03
3.255900000000000016e+00 1.832204116599540612e+03
3.376500000000000057e+00 2.033085195791254364e+03
3.497100000000000097e+00 2.258612513627570024e+03
3.617700000000000138e+00 2.503008583285318309e+03
3.738300000000000178e+00 2.781035730984836391e+03
3.858900000000000219e+00 3.086925367856251341e+03
3.979499999999999815e+00 3.436547744861555202e+03
4.100100000000000300e+00 3.835452244171295206e+03
4.220699999999999896e+00 4.285424718727212166e+03
4.341300000000000381e+00 4.807990461234136092e+03
4.461899999999999977e+00 5.417576648107674373e+03
4.582399999999999807e+00 6.141395861718414380e+03
4.703000000000000291e+00 7.024706957606466858e+03
4.823599999999999888e+00 8.135118819862694181e+03
4.944200000000000372e+00 9.602332556981482412e+03
5.064799999999999969e+00 1.173383946285517050e+04
5.185399999999999565e+00 1.550810286613753669e+04
5.306000000000000050e+00 2.305451436573302635e+04
5.426599999999999646e+00 3.279095370510255452e+04
5.547200000000000131e+00 4.957802950930618681e+04
5.667799999999999727e+00 6.652474213276623050e+04
5.788400000000000212e+00 8.714206420419909409e+04
5.908900000000000041e+00 9.457578685913491063e+04
6.029499999999999638e+00 1.215987326201581891e+05
6.150100000000000122e+00 1.470605113785806170e+05
6.270699999999999719e+00 1.907692339511275350e+05
6.391300000000000203e+00 2.372628617667098879e+05
6.511899999999999800e+00 3.083368586810115958e+05
6.632500000000000284e+00 4.193133661205808748e+05
6.753099999999999881e+00 4.641073261681132717e+05
6.873700000000000365e+00 5.145107764109307900e+05
6.994299999999999962e+00 5.538996098049032735e+05
7.114799999999999791e+00 5.839077573467504699e+05
7.235400000000000276e+00 5.734562666463716887e+05
7.355999999999999872e+00 5.849139573473944329e+05
7.476600000000000357e+00 5.984069615051888395e+05
7.597199999999999953e+00 6.012991250423281454e+05
7.717800000000000438e+00 6.100693649285002612e+05
7.838400000000000034e+00 6.344116901474309852e+05
7.958999999999999631e+00 6.604841253382330760e+05
8.079599999999999227e+00 7.113938640534672886e+05
8.200200000000000600e+00 7.094091517014371930e+05
8.320800000000000196e+00 6.879157915347820381e+05
8.441300000000000026e+00 6.707411448331658030e+05
8.561899999999999622e+00 6.897768134674951434e+05
8.682499999999999218e+00 7.214571016892162152e+05
8.803100000000000591e+00 7.583820679905316792e+05
8.923700000000000188e+00 7.769368737331028096e+05
9.044299999999999784e+00 8.100665991292721592e+05
9.164899999999999380e+00 8.514506076526786201e+05
9.285500000000000753e+00 8.542202819563762750e+05
9.406100000000000350e+00 8.726010760669087758e+05
9.526699999999999946e+00 9.459344969986878568e+05
9.647299999999999542e+00 9.667015349334191997e+05
9.767799999999999372e+00 9.834017494164466625e+05
9.888400000000000745e+00 9.813101702656630659e+05
1.000900000000000034e+01 9.442314222479686141e+05
1.012959999999999994e+01 9.182590221531861462e+05
1.025019999999999953e+01 9.007746751534703653e+05
1.037079999999999913e+01 8.916475087980672251e+05
1.049140000000000050e+01 8.761939781357190805e+05
1.061200000000000010e+01 8.549417365907297935e+05
1.073259999999999970e+01 8.391040210905170534e+05
1.085319999999999929e+01 8.283431629671570845e+05
1.097380000000000067e+01 7.802545840081735514e+05
1.109430000000000049e+01 7.433552423325314885e+05
1.121490000000000009e+01 7.275831758994286647e+05
1.133549999999999969e+01 7.617858623116812669e+05
1.145609999999999928e+01 7.982318436599904671e+05
1.157670000000000066e+01 8.098607732153522084e+05
1.169730000000000025e+01 8.123676089102762053e+05
1.181789999999999985e+01 8.462054777327926131e+05
1.193849999999999945e+01 8.662874347976162098e+05
1.205910000000000082e+01 8.650242206191156292e+05
1.217970000000000041e+01 8.583364316926983884e+05
1.230020000000000024e+01 8.623887356893789256e+05
1.242079999999999984e+01 8.615906986588165164e+05
1.254139999999999944e+01 8.937750939337082673e+05
1.266200000000000081e+01 9.070335465320573421e+05
1.278260000000000041e+01 9.264771223733200459e+05
1.290320000000000000e+01 9.486695335060693324e+05
1.302379999999999960e+01 9.895092241644558962e+05
1.314439999999999920e+01 9.954695723217275226e+05
1.326500000000000057e+01 9.973578849880777998e+05
1.338560000000000016e+01 1.062272557003733935e+06
1.350619999999999976e+01 1.080313950826901244e+06
1.362669999999999959e+01 1.095931659301297506e+06
1.374729999999999919e+01 1.093965087146874284e+06
1.386790000000000056e+01 1.081071210700593889e+06
1.398850000000000016e+01 1.106674866339055588e+06
1.410909999999999975e+01 1.158392761246719398e+06
1.422969999999999935e+01 1.191240312575971009e+06
1.435030000000000072e+01 1.196855451913544443e+06
1.447090000000000032e+01 1.219283645673736930e+06
1.459149999999999991e+01 1.248604503854044713e+06
1.471209999999999951e+01 1.267187521966396598e+06
1.483270000000000088e+01 1.288457507951066829e+06
1.495320000000000071e+01 1.296476269803710282e+06
1.507380000000000031e+01 1.271064743831884349e+06
1.519439999999999991e+01 1.234109415254080435e+06
1.531499999999999950e+01 1.194366154160985956e+06
1.543560000000000088e+01 1.161410225620211568e+06
1.555620000000000047e+01 1.130346606136308750e+06
1.567680000000000007e+01 1.139669815788588719e+06
1.579739999999999966e+01 1.124041720564249670e+06
1.591799999999999926e+01 1.087592036782691022e+06
1.603859999999999886e+01 1.113518801332060015e+06
1.615909999999999869e+01 1.125964183698995505e+06
1.627969999999999828e+01 1.142214040111848619e+06
1.640030000000000143e+01 1.200580745566760190e+06
1.652090000000000103e+01 1.271101877742680488e+06
1.664150000000000063e+01 1.293794545229625888e+06
1.676210000000000022e+01 1.307698717310840264e+06
1.688269999999999982e+01 1.314154190115501406e+06
1.700329999999999941e+01 1.295287982852353714e+06
1.712389999999999901e+01 1.265368701922046719e+06
1.724449999999999861e+01 1.234788704671226675e+06
1.736510000000000176e+01 1.230801891694226535e+06
1.748560000000000159e+01 1.212504386315025622e+06
1.760620000000000118e+01 1.204437080845336197e+06
1.772680000000000078e+01 1.168394997372302227e+06
1.784740000000000038e+01 1.114308611947644269e+06
1.796799999999999997e+01 1.099609352587741101e+06
1.808859999999999957e+01 1.076082586899307091e+06
1.820919999999999916e+01 1.059465401194247650e+06
1.832979999999999876e+01 1.036936129608072224e+06
1.845039999999999836e+01 1.009030074005589355e+06
1.857100000000000151e+01 1.007925444904559059e+06
1.869160000000000110e+01 9.904710402497269679e+05
1.881210000000000093e+01 9.866081809982840205e+05
1.893270000000000053e+01 9.817891481192263309e+05
1.905330000000000013e+01 9.646257387287120800e+05
1.917389999999999972e+01 9.675350454605340492e+05
1.929449999999999932e+01 9.408251519656396704e+05
1.941509999999999891e+01 8.992082812230502022e+05
1.953569999999999851e+01 8.497507952672846150e+05
1.965630000000000166e+01 7.971189691772431834e+05
1.977690000000000126e+01 7.475249522825421300e+05
1.989750000000000085e+01 6.947311790995128686e+05
2.001810000000000045e+01 6.588785523178020958e+05
2.013860000000000028e+01 6.302786624981814530e+05
2.025919999999999987e+01 6.048647980789244175e+05
2.037979999999999947e+01 5.924123259008125169e+05
2.050039999999999907e+01 5.993586004165348131e+05
2.062099999999999866e+01 6.087585540532581508e+05
2.074159999999999826e+01 6.570631277911483776e+05
2.086220000000000141e+01 7.693207611778498394e+05
2.098280000000000101e+01 8.926537232664905023e+05
2.110340000000000060e+01 1.031885289960024063e+06
2.122400000000000020e+01 1.111206877514163498e+06
2.134450000000000003e+01 1.201175881444037426e+06
2.146509999999999962e+01 1.315240658569372725e+06
2.158569999999999922e+01 1.419699508589227451e+06
2.170629999999999882e+01 1.519404643719556509e+06
2.182689999999999841e+01 1.505961145880809985e+06
2.194750000000000156e+01 1.479740722674278310e+06
2.206810000000000116e+01 1.406826854512846563e+06
2.218870000000000076e+01 1.312155358433996094e+06
2.230930000000000035e+01 1.326889684404971078e+06
2.242989999999999995e+01 1.335757382192865480e+06
2.255049999999999955e+01 1.354893953604045557e+06
2.267099999999999937e+01 1.351741624571938533e+06
2.279159999999999897e+01 1.291712551204530522e+06
2.291219999999999857e+01 1.323123279914231505e+06
2.303280000000000172e+01 1.283191002744084690e+06
2.315340000000000131e+01 1.240070727086861385e+06
2.327400000000000091e+01 1.236831751340272604e+06
2.339460000000000051e+01 1.169550492835347541e+06
2.351520000000000010e+01 1.072599068665288622e+06
2.363579999999999970e+01 1.038811913948637899e+06
2.375639999999999930e+01 1.035380575059201801e+06
2.387699999999999889e+01 1.023483281711748801e+06
2.399749999999999872e+01 1.018437669488304295e+06
2.411809999999999832e+01 1.012300601348857745e+06
2.423870000000000147e+01 9.964435664763937239e+05
2.435930000000000106e+01 9.794184363817826379e+05
2.447990000000000066e+01 9.696485296276967274e+05
2.460050000000000026e+01 9.684863565574670210e+05
2.472109999999999985e+01 9.742673503702899907e+05
2.484169999999999945e+01 9.308714205571236089e+05
2.496229999999999905e+01 8.875001430899424013e+05
2.508289999999999864e+01 8.377124182750948239e+05
2.520339999999999847e+01 7.743001196087339194e+05
2.532400000000000162e+01 7.500152549873222597e+05
2.544460000000000122e+01 7.193707738078753464e+05
2.556520000000000081e+01 6.882321670218380168e+05
2.568580000000000041e+01 6.455354511555137578e+05
2.580640000000000001e+01 5.846501871028078021e+05
2.592699999999999960e+01 5.583511178719800664e+05
2.604759999999999920e+01 5.351397584167669993e+05
2.616819999999999879e+01 5.365228600944536738e+05
2.628879999999999839e+01 5.134267575469787116e+05
2.640940000000000154e+01 5.185527535093101324e+05
2.652990000000000137e+01 5.003703652773638605e+05
2.665050000000000097e+01 4.702430784198034089e+05
2.677110000000000056e+01 4.739464056488260394e+05
2.689170000000000016e+01 4.584886966109640780e+05
2.701229999999999976e+01 4.479186411324591027e+05
2.713289999999999935e+01 4.371031885484982631e+05
2.725349999999999895e+01 4.346457385964916903e+05
2.737409999999999854e+01 4.432034122027499252e+05
2.749470000000000169e+01 4.510179221524228342e+05
2.761530000000000129e+01 4.412344388043956133e+05
2.773590000000000089e+01 4.361646116860787733e+05
2.785640000000000072e+01 4.200266696065227152e+05
2.797700000000000031e+01 4.144492272135943058e+05
2.809759999999999991e+01 4.103969424626533873e+05
2.821819999999999951e+01 4.112133483337225625e+05
2.833879999999999910e+01 3.960844867881101673e+05
2.845939999999999870e+01 3.755613489592123660e+05
2.857999999999999829e+01 3.562207024450633908e+05
2.870060000000000144e+01 3.568761671737581491e+05
2.882120000000000104e+01 3.370083555508159916e+05
2.894180000000000064e+01 3.142343593616003636e+05
2.906240000000000023e+01 2.979572944097880390e+05
2.918290000000000006e+01 2.957648003651096369e+05
2.930349999999999966e+01 2.951633600635771872e+05
2.942409999999999926e+01 2.970203530548499548e+05
2.954469999999999885e+01 2.960652214437450748e+05
2.966529999999999845e+01 2.935151107743037865e+05
2.978590000000000160e+01 2.811228073470461532e+05
2.990650000000000119e+01 2.681252355076179956e+05
3.002710000000000079e+01 2.649776822066815803e+05
3.014770000000000039e+01 2.600426009163287526e+05
3.026829999999999998e+01 2.583895156353910861e+05
3.038879999999999981e+01 2.533682529674196558e+05
3.050939999999999941e+01 2.534843704426409677e+05
3.062999999999999901e+01 2.490540878367175465e+05
3.075059999999999860e+01 2.454079513727733574e+05
3.087120000000000175e+01 2.372242220426375279e+05
3.099180000000000135e+01 2.330281436279607005e+05
3.111240000000000094e+01 2.297106920117176778e+05
3.123300000000000054e+01 2.207118971104409429e+05
3.135360000000000014e+01 2.175581508811007370e+05
3.147419999999999973e+01 2.142399748216522567e+05
3.159479999999999933e+01 2.078588989379727573e+05
3.171529999999999916e+01 2.055109096259312064e+05
3.183589999999999876e+01 2.025167414904460311e+05
3.195649999999999835e+01 2.015875808329259162e+05
3.207710000000000150e+01 2.025697971770135628e+05
3.219769999999999754e+01 1.983201955776120303e+05
3.231830000000000069e+01 1.923541450147825817e+05
3.243889999999999674e+01 1.944460070252185105e+05
3.255949999999999989e+01 1.944335020857676282e+05
3.268010000000000304e+01 1.902813719459397253e+05
3.280069999999999908e+01 1.862052155504833499e+05
3.292130000000000223e+01 1.842184305740167620e+05
3.304180000000000206e+01 1.798910326865856769e+05
3.316239999999999810e+01 1.746365462198734749e+05
3.328300000000000125e+01 1.716190965109824028e+05
3.340359999999999729e+01 1.676735499389411416e+05
3.352420000000000044e+01 1.662352778093529341e+05
3.364479999999999649e+01 1.615884259981595969e+05
3.376539999999999964e+01 1.639301768903133343e+05
3.388600000000000279e+01 1.662596874784393585e+05
3.400659999999999883e+01 1.636511627836099360e+05
3.412720000000000198e+01 1.640669496481892129e+05
3.424770000000000181e+01 1.639811702647782222e+05
3.436829999999999785e+01 1.619366129208206548e+05
3.448890000000000100e+01 1.638912238089218154e+05
3.460949999999999704e+01 1.636766734515331918e+05
3.473010000000000019e+01 1.594158328768060892e+05
3.485070000000000334e+01 1.549266474008483056e+05
3.497129999999999939e+01 1.539978414613921777e+05
3.509190000000000254e+01 1.479207152537000075e+05
3.521249999999999858e+01 1.472313177490942762e+05
3.533310000000000173e+01 1.533609731257720268e+05
3.545369999999999777e+01 1.579881117291938572e+05
3.557419999999999760e+01 1.545777654725654284e+05
3.569480000000000075e+01 1.501791327251510520e+05
3.581539999999999679e+01 1.533990419387503935e+05
3.593599999999999994e+01 1.511272433363137534e+05
3.605660000000000309e+01 1.462414961674720980e+05
3.617719999999999914e+01 1.426754577148584940e+05
3.629780000000000229e+01 1.444962206353082438e+05
3.641839999999999833e+01 1.427433315038846922e+05
3.653900000000000148e+01 1.428006877805781260e+05
3.665959999999999752e+01 1.383527499220833415e+05
3.678020000000000067e+01 1.367170855122607609e+05
3.690070000000000050e+01 1.378673540131992195e+05
3.702129999999999654e+01 1.363291586155649275e+05
3.714189999999999969e+01 1.337428612565371150e+05
3.726250000000000284e+01 1.293112623950333946e+05
3.738309999999999889e+01 1.327472623045493674e+05
3.750370000000000203e+01 1.307978360953800147e+05
3.762429999999999808e+01 1.265554416940213996e+05
3.774490000000000123e+01 1.267663799807025207e+05
3.786549999999999727e+01 1.251168172166818840e+05
3.798610000000000042e+01 1.242382345445899846e+05
3.810669999999999646e+01 1.241525179005708924e+05
3.822720000000000340e+01 1.218064158473478165e+05
3.834779999999999944e+01 1.224236501598867035e+05
3.846840000000000259e+01 1.156603809209823376e+05
3.858899999999999864e+01 1.155971868051936763e+05
3.870960000000000178e+01 1.179452635976954334e+05
3.883019999999999783e+01 1.154149819740713574e+05
3.895080000000000098e+01 1.176691460856168123e+05
3.907139999999999702e+01 1.174133438579672220e+05
3.919200000000000017e+01 1.137119277906999196e+05
3.931260000000000332e+01 1.105652138758083747e+05
3.943310000000000315e+01 1.109733628274886432e+05
3.955369999999999919e+01 1.113143391970013181e+05
3.967430000000000234e+01 1.091139006434835464e+05
3.979489999999999839e+01 1.100495441130758118e+05
3.991550000000000153e+01 1.072824863531222800e+05
4.003609999999999758e+01 1.037355820603362372e+05
4.015670000000000073e+01 1.017290458897416102e+05
4.027729999999999677e+01 1.028285575872331538e+05
4.039789999999999992e+01 1.021050975299739948e+05
4.051850000000000307e+01 1.037913235008004558e+05
4.063909999999999911e+01 1.033620846478290914e+05
4.075959999999999894e+01 1.023169716329118382e+05
4.088020000000000209e+01 9.856206257166051364e+04
4.100079999999999814e+01 9.881808070415195834e+04
4.112140000000000128e+01 9.794918154251239321e+04
4.124199999999999733e+01 9.763090361494039826e+04
4.136260000000000048e+01 9.535523649595541065e+04
4.148319999999999652e+01 9.328350606277950283e+04
4.160379999999999967e+01 9.031411323517109849e+04
4.172440000000000282e+01 8.873035022545001993e+04
4.184499999999999886e+01 8.801165566458397370e+04
4.196560000000000201e+01 8.811077273079717997e+04
4.208610000000000184e+01 8.647049488812046184e+04
4.220669999999999789e+01 8.541974850820981374e+04
4.232730000000000103e+01 8.638407234689043253e+04
4.244789999999999708e+01 8.568950862856922322e+04
4.256850000000000023e+01 8.578381440122392087e+04
4.268910000000000338e+01 8.564948361194905010e+04
4.280969999999999942e+01 8.577749477879708866e+04
4.293030000000000257e+01 8.307377541877943440e+04
4.305089999999999861e+01 8.168861457203951431e+04
4.317150000000000176e+01 8.176273524474221631e+04
4.329200000000000159e+01 8.161654490920815442e+04
4.341259999999999764e+01 8.090887521491444204e+04
4.353320000000000078e+01 7.937501321199603262e+04
4.365379999999999683e+01 7.780657896090093709e+04
4.377439999999999998e+01 7.869798276699986309e+04
4.389500000000000313e+01 7.758204146917491744e+04
4.401559999999999917e+01 7.435569742812846380e+04
4.413620000000000232e+01 7.538330610222519317e+04
4.425679999999999836e+01 7.537869133730899193e+04
4.437740000000000151e+01 7.529068465033236134e+04
4.449799999999999756e+01 7.445263640758718248e+04
4.461849999999999739e+01 7.452172143619296548e+04
4.473910000000000053e+01 7.411015164597173862e+04
4.485969999999999658e+01 7.226462365020618017e+04
4.498029999999999973e+01 7.189314794022885326e+04
4.510090000000000288e+01 7.229608391067020420e+04
4.522149999999999892e+01 7.109764550995273748e+04
4.534210000000000207e+01 7.207185039903123106e+04
4.546269999999999811e+01 7.248252389672552818e+04
4.558330000000000126e+01 7.265303510999488935e+04
4.570389999999999731e+01 7.137485487935190031e+04
4.582450000000000045e+01 7.169678654973834637e+04
4.594500000000000028e+01 7.058308897578026517e+04
4.606560000000000343e+01 7.073597979931102600e+04
4.618619999999999948e+01 6.962626460801393841e+04
4.630680000000000263e+01 6.789368440703208034e+04
4.642739999999999867e+01 6.709557254704559455e+04
4.654800000000000182e+01 6.491507134805934766e+04
4.666859999999999786e+01 6.469457477328842651e+04
4.678920000000000101e+01 6.336262605282620643e+04
4.690979999999999706e+01 6.192491080919840169e+04
4.703040000000000020e+01 6.229307100555069337e+04
4.715100000000000335e+01 6.303294191891991068e+04
4.727150000000000318e+01 6.178596322987406893e+04
4.739209999999999923e+01 6.024706347332587029e+04
4.751270000000000238e+01 6.062845091240596958e+04
4.763329999999999842e+01 5.846739517450222775e+04
4.775390000000000157e+01 6.013687039612288936e+04
4.787449999999999761e+01 6.123212076094240911e+04
4.799510000000000076e+01 6.092472146910648007e+04
