# energy(eV) alpha
0.000000000000000000e+00 0.000000000000000000e+00
2.929999999999999966e-02 2.947637385649251485e+00
5.850000000000000339e-02 1.180741179579745470e+01
8.780000000000000304e-02 2.666193287622548880e+01
1.170999999999999958e-01 4.762753402055849961e+01
1.464000000000000024e-01 7.470913027254606220e+01
1.756000000000000061e-01 1.082346131645051628e+02
2.048999999999999988e-01 1.482535838785505575e+02
2.341999999999999915e-01 1.954244158827408455e+02
2.635000000000000120e-01 2.497110751201674077e+02
2.927000000000000157e-01 3.117775798322952028e+02
3.220000000000000084e-01 3.817556777120829565e+02
3.513000000000000012e-01 4.607095626966507211e+02
3.805999999999999939e-01 5.490876329758298198e+02
4.097999999999999976e-01 6.477103738572596967e+02
4.390999999999999903e-01 7.571262579773492689e+02
4.683999999999999830e-01 8.791838831975594530e+02
4.975999999999999868e-01 1.014731139308914862e+03
5.269000000000000350e-01 1.165937661144183039e+03
5.562000000000000277e-01 1.334586740378107834e+03
5.855000000000000204e-01 1.522835690968557401e+03
6.147000000000000242e-01 1.733507024769499367e+03
6.440000000000000169e-01 1.971807796497815616e+03
6.733000000000000096e-01 2.241759415178322797e+03
7.026000000000000023e-01 2.550199315685239071e+03
7.318000000000000060e-01 2.906569715874406029e+03
7.610999999999999988e-01 3.321363059142886868e+03
7.903999999999999915e-01 3.813192510758450226e+03
8.196999999999999842e-01 4.405854717237581099e+03
8.488999999999999879e-01 5.133053725183237475e+03
8.781999999999999806e-01 6.047397507149295961e+03
9.074999999999999734e-01 7.223103176725134290e+03
9.366999999999999771e-01 8.752618307914335674e+03
9.659999999999999698e-01 1.071323706477966698e+04
9.952999999999999625e-01 1.304222038239138055e+04
1.024599999999999955e+00 1.542048427897908005e+04
1.053800000000000070e+00 1.748420135230525193e+04
1.083099999999999952e+00 1.915567257628067091e+04
1.112400000000000055e+00 2.057922756605274481e+04
1.141699999999999937e+00 2.219808419650462019e+04
1.170900000000000052e+00 2.469779358990384208e+04
1.200199999999999934e+00 2.863850872165218971e+04
1.229500000000000037e+00 3.408219678281709639e+04
1.258799999999999919e+00 4.032353671096479229e+04
1.288000000000000034e+00 4.611828676898402773e+04
1.317299999999999915e+00 5.043595151329056534e+04
1.346600000000000019e+00 5.265043156073592399e+04
1.375799999999999912e+00 5.294701270851011941e+04
1.405100000000000016e+00 5.293869004508299986e+04
1.434399999999999897e+00 5.467777798015969165e+04
1.463700000000000001e+00 5.948549260527107253e+04
1.492899999999999894e+00 6.752986939074723341e+04
1.522199999999999998e+00 7.766454751523374580e+04
1.551500000000000101e+00 8.784965084600356931e+04
1.580799999999999983e+00 9.604050160961451184e+04
1.610000000000000098e+00 1.008227136675535294e+05
1.639299999999999979e+00 1.024478892094589974e+05
1.668600000000000083e+00 1.028967617175945634e+05
1.697899999999999965e+00 1.047562739920472231e+05
1.727100000000000080e+00 1.101421170880324353e+05
1.756399999999999961e+00 1.202947253219499253e+05
1.785700000000000065e+00 1.349389620250825246e+05
1.814899999999999958e+00 1.523523263515734579e+05
1.844200000000000061e+00 1.695452775738826604e+05
1.873499999999999943e+00 1.821966848419227172e+05
1.902800000000000047e+00 1.873305518109299592e+05
1.931999999999999940e+00 1.867222062679092342e+05
1.961300000000000043e+00 1.859324980579258699e+05
1.990599999999999925e+00 1.888701424862545100e+05
2.019899999999999807e+00 1.956287457711868628e+05
2.049100000000000144e+00 2.050378144858888991e+05
2.078399999999999803e+00 2.157718303588606068e+05
2.107699999999999907e+00 2.257186812742496259e+05
2.137000000000000011e+00 2.321876118883362797e+05
2.166199999999999903e+00 2.332455584463870036e+05
2.195500000000000007e+00 2.299393522542999126e+05
2.224800000000000111e+00 2.257237237764210440e+05
2.254000000000000004e+00 2.243403661063225591e+05
2.283300000000000107e+00 2.275897925457078672e+05
2.312600000000000211e+00 2.346461180243348354e+05
2.341899999999999871e+00 2.440479123521421279e+05
2.371100000000000207e+00 2.537450129666327848e+05
2.400399999999999867e+00 2.610864123903893924e+05
2.429699999999999971e+00 2.646800993231962784e+05
2.459000000000000075e+00 2.658203279597485089e+05
2.488199999999999967e+00 2.668136638535964885e+05
2.517500000000000071e+00 2.690623783185497159e+05
2.546800000000000175e+00 2.732118226470411755e+05
2.576099999999999834e+00 2.792467451200163341e+05
2.605300000000000171e+00 2.861942195236332482e+05
2.634599999999999831e+00 2.926951511810596567e+05
2.663899999999999935e+00 2.977722592418870190e+05
2.693099999999999827e+00 3.010700694508564193e+05
2.722399999999999931e+00 3.034490441178414621e+05
2.751700000000000035e+00 3.058181085087853717e+05
2.781000000000000139e+00 3.083183167337097693e+05
2.810200000000000031e+00 3.108428022864040686e+05
2.839500000000000135e+00 3.129615927513624774e+05
2.868799999999999795e+00 3.141186527548969607e+05
2.898099999999999898e+00 3.144867951173274196e+05
2.927299999999999791e+00 3.147282202279090998e+05
2.956599999999999895e+00 3.158166197030725307e+05
2.985899999999999999e+00 3.190488431875518872e+05
3.015200000000000102e+00 3.253282199367268477e+05
3.044399999999999995e+00 3.344608833107853425e+05
3.073700000000000099e+00 3.456540539321512915e+05
3.103000000000000203e+00 3.576431237374321208e+05
3.132200000000000095e+00 3.688018170014744392e+05
3.161500000000000199e+00 3.781381236299679149e+05
3.190799999999999859e+00 3.859831924989280524e+05
3.220099999999999962e+00 3.938122972893960541e+05
3.249299999999999855e+00 4.025548232751674368e+05
3.278599999999999959e+00 4.113808613734566025e+05
3.307900000000000063e+00 4.189270719223853084e+05
3.337200000000000166e+00 4.241982427082452923e+05
3.366400000000000059e+00 4.260049272113804473e+05
3.395700000000000163e+00 4.233537073601772427e+05
3.424999999999999822e+00 4.163047398436312797e+05
3.454299999999999926e+00 4.064410690959747881e+05
3.483499999999999819e+00 3.961169034984095488e+05
3.512799999999999923e+00 3.871973000536157633e+05
3.542100000000000026e+00 3.804413442345738877e+05
3.571299999999999919e+00 3.760820733742284356e+05
3.600600000000000023e+00 3.741509631308688549e+05
3.629900000000000126e+00 3.738997547057622578e+05
3.659199999999999786e+00 3.739330998317271005e+05
3.688400000000000123e+00 3.731324376024055528e+05
3.717699999999999783e+00 3.712847769629899412e+05
3.746999999999999886e+00 3.688286334700921434e+05
3.776299999999999990e+00 3.664826327598002972e+05
3.805499999999999883e+00 3.648799891505535343e+05
3.834799999999999986e+00 3.642438558655832312e+05
3.864100000000000090e+00 3.642889366813916713e+05
3.893400000000000194e+00 3.644573275891427766e+05
3.922600000000000087e+00 3.643231257370780222e+05
3.951900000000000190e+00 3.639594181008405285e+05
3.981199999999999850e+00 3.637913249980492983e+05
4.010500000000000398e+00 3.643306395317142014e+05
4.039699999999999847e+00 3.657118212175110821e+05
4.068999999999999950e+00 3.677513939214701531e+05
4.098300000000000054e+00 3.701742237950740964e+05
4.127500000000000391e+00 3.725469175346121774e+05
4.156799999999999606e+00 3.744021557047975948e+05
4.186099999999999710e+00 3.754940059903248330e+05
4.215399999999999814e+00 3.756788321829839842e+05
4.244600000000000151e+00 3.749534923043486197e+05
4.273900000000000254e+00 3.738375427043127711e+05
4.303200000000000358e+00 3.728821469565454172e+05
4.332499999999999574e+00 3.721764323729878524e+05
4.361699999999999910e+00 3.714288730619834969e+05
4.391000000000000014e+00 3.703934300524519640e+05
4.420300000000000118e+00 3.689239465975342900e+05
4.449600000000000222e+00 3.669113221783728804e+05
4.478799999999999670e+00 3.644831486942828633e+05
4.508099999999999774e+00 3.620584701444162638e+05
4.537399999999999878e+00 3.597204601119142026e+05
4.566600000000000215e+00 3.570482778166644857e+05
4.595900000000000318e+00 3.538674985861310270e+05
4.625200000000000422e+00 3.505816048429752118e+05
4.654499999999999638e+00 3.477368782224624883e+05
4.683699999999999974e+00 3.455265364297045744e+05
4.713000000000000078e+00 3.436982136152667226e+05
4.742300000000000182e+00 3.416945211240472272e+05
4.771600000000000286e+00 3.392010008691400872e+05
4.800799999999999734e+00 3.364587931048976025e+05
4.830099999999999838e+00 3.340448961299471557e+05
4.859399999999999942e+00 3.325104244609033340e+05
4.888700000000000045e+00 3.317765400758967153e+05
4.917900000000000382e+00 3.308539052736661397e+05
4.947199999999999598e+00 3.287873482502837433e+05
4.976499999999999702e+00 3.256179983034273027e+05
5.005700000000000038e+00 3.221592252497442532e+05
5.035000000000000142e+00 3.192134163727645064e+05
5.064300000000000246e+00 3.171354681903289165e+05
5.093600000000000350e+00 3.159051755764972768e+05
5.122799999999999798e+00 3.154964706257628277e+05
5.152099999999999902e+00 3.160998167853814666e+05
5.181400000000000006e+00 3.177218100593079580e+05
5.210700000000000109e+00 3.200422300269553089e+05
5.239899999999999558e+00 3.227576129419434001e+05
5.269199999999999662e+00 3.258212077353175264e+05
5.298499999999999766e+00 3.291694934495286434e+05
5.327799999999999869e+00 3.325847462604128523e+05
5.357000000000000206e+00 3.359706166116881068e+05
5.386300000000000310e+00 3.392875237600314431e+05
5.415600000000000414e+00 3.424587468333393335e+05
5.444799999999999862e+00 3.455376004581976449e+05
5.474099999999999966e+00 3.489968596936146496e+05
5.503400000000000070e+00 3.533572491635797778e+05
5.532700000000000173e+00 3.584952894394515897e+05
5.561899999999999622e+00 3.635098936093823868e+05
5.591199999999999726e+00 3.677423091075579287e+05
5.620499999999999829e+00 3.715547586712708580e+05
5.649799999999999933e+00 3.759300565011542058e+05
5.679000000000000270e+00 3.813304532115967013e+05
5.708300000000000374e+00 3.875200523150529480e+05
5.737599999999999589e+00 3.938757341816111002e+05
5.766899999999999693e+00 3.997237570709146676e+05
5.796100000000000030e+00 4.045085180441657430e+05
5.825400000000000134e+00 4.080693246839954518e+05
5.854700000000000237e+00 4.105815591086159111e+05
5.883899999999999686e+00 4.123786016008600709e+05
5.913199999999999790e+00 4.139503034934544703e+05
5.942499999999999893e+00 4.156974334938503453e+05
5.971799999999999997e+00 4.179362178891595686e+05
6.001000000000000334e+00 4.210725566403145203e+05
6.030300000000000438e+00 4.254532858309001313e+05
6.059599999999999653e+00 4.311934761673580506e+05
6.088899999999999757e+00 4.383614564837666112e+05
6.118100000000000094e+00 4.472736697268203716e+05
6.147400000000000198e+00 4.582628076285590068e+05
6.176700000000000301e+00 4.712115385369232972e+05
6.206000000000000405e+00 4.855937081039529294e+05
6.235199999999999854e+00 5.006473313451781869e+05
6.264499999999999957e+00 5.157160455593238585e+05
6.293800000000000061e+00 5.306281509282637853e+05
6.323000000000000398e+00 5.459360625883545727e+05
6.352299999999999613e+00 5.624475624324172968e+05
6.381599999999999717e+00 5.804337717107386561e+05
6.410899999999999821e+00 5.993588558910711436e+05
6.440100000000000158e+00 6.184022940400652587e+05
6.469400000000000261e+00 6.372865329752950929e+05
6.498700000000000365e+00 6.560544185021511512e+05
6.527999999999999581e+00 6.745833737915421370e+05
6.557199999999999918e+00 6.924830120590270963e+05
6.586500000000000021e+00 7.095581901570314076e+05
6.615800000000000125e+00 7.256936948252663715e+05
6.645100000000000229e+00 7.406284589422954014e+05
6.674299999999999677e+00 7.540150828003747156e+05
6.703599999999999781e+00 7.657796234109523939e+05
6.732899999999999885e+00 7.758469530664016493e+05
6.762100000000000222e+00 7.841196398543540854e+05
6.791400000000000325e+00 7.909843314682720229e+05
6.820700000000000429e+00 7.973531052668741904e+05
6.849999999999999645e+00 8.040720930519785034e+05
6.879199999999999982e+00 8.115650727834787685e+05
6.908500000000000085e+00 8.197988278003905434e+05
6.937800000000000189e+00 8.282535103307152167e+05
6.967100000000000293e+00 8.363644116382112261e+05
6.996299999999999741e+00 8.441017583988839760e+05
7.025599999999999845e+00 8.518194145950692473e+05
7.054899999999999949e+00 8.596582483047003625e+05
7.084200000000000053e+00 8.671476906263201963e+05
7.113400000000000389e+00 8.736414998907487607e+05
7.142699999999999605e+00 8.790117883928583469e+05
7.171999999999999709e+00 8.833718130186563358e+05
7.201200000000000045e+00 8.867190595165735576e+05
7.230500000000000149e+00 8.891900709918903885e+05
7.259800000000000253e+00 8.911541968915797770e+05
7.289100000000000357e+00 8.927255996960678604e+05
7.318299999999999805e+00 8.936190020689072553e+05
7.347599999999999909e+00 8.937369449257873930e+05
7.376900000000000013e+00 8.933094006305037765e+05
7.406200000000000117e+00 8.928643039081640309e+05
7.435399999999999565e+00 8.931220345461778343e+05
7.464699999999999669e+00 8.943819759616422234e+05
7.493999999999999773e+00 8.962869136258009821e+05
7.523299999999999876e+00 8.983255797684009885e+05
7.552500000000000213e+00 9.001515400496586226e+05
7.581800000000000317e+00 9.016698696079086512e+05
7.611100000000000421e+00 9.030581424689408159e+05
7.640299999999999869e+00 9.046580512720030965e+05
7.669599999999999973e+00 9.065648142033119220e+05
7.698900000000000077e+00 9.089444288218485890e+05
7.728200000000000180e+00 9.118708204310564324e+05
7.757399999999999629e+00 9.148430204194098478e+05
7.786699999999999733e+00 9.171730835360512137e+05
7.815999999999999837e+00 9.185840366035012994e+05
7.845299999999999940e+00 9.194140841751052067e+05
7.874500000000000277e+00 9.201742761654293863e+05
7.903800000000000381e+00 9.212973836106291274e+05
7.933099999999999596e+00 9.228706022579040146e+05
7.962399999999999700e+00 9.247695579830858624e+05
7.991600000000000037e+00 9.268269137387929950e+05
8.020899999999999253e+00 9.289425441315025091e+05
8.050200000000000244e+00 9.311121188333518803e+05
8.079399999999999693e+00 9.333400091690864647e+05
8.108700000000000685e+00 9.354974081987846876e+05
8.137999999999999901e+00 9.374218515070213471e+05
8.167299999999999116e+00 9.391742633948668372e+05
8.196500000000000341e+00 9.411922808728560340e+05
8.225799999999999557e+00 9.440667304623581003e+05
8.255100000000000549e+00 9.478910023140982958e+05
8.284399999999999764e+00 9.522184746423008619e+05
8.313599999999999213e+00 9.566790878750879783e+05
8.342900000000000205e+00 9.613155778507838259e+05
8.372199999999999420e+00 9.662654669625534443e+05
8.401500000000000412e+00 9.716399102533244295e+05
8.430699999999999861e+00 9.775072304261364043e+05
8.460000000000000853e+00 9.836901800182764418e+05
8.489300000000000068e+00 9.897556025961738778e+05
8.518499999999999517e+00 9.953270480333500309e+05
8.547800000000000509e+00 1.000229403627013438e+06
8.577099999999999724e+00 1.004555478455318836e+06
8.606400000000000716e+00 1.008700449776934693e+06
8.635600000000000165e+00 1.013136158989145886e+06
8.664899999999999380e+00 1.018083347041646135e+06
8.694200000000000372e+00 1.023292197275751387e+06
8.723499999999999588e+00 1.028424553953507333e+06
8.752700000000000813e+00 1.033146407875427860e+06
8.782000000000000028e+00 1.037313730597377988e+06
8.811299999999999244e+00 1.040977892593872850e+06
8.840600000000000236e+00 1.044378073042160831e+06
8.869799999999999685e+00 1.047510384714653948e+06
8.899100000000000676e+00 1.050226448091802420e+06
8.928399999999999892e+00 1.052255608268833021e+06
8.957599999999999341e+00 1.053622343828209676e+06
8.986900000000000333e+00 1.054771168343109079e+06
9.016199999999999548e+00 1.056345485336179147e+06
9.045500000000000540e+00 1.058516537282937439e+06
9.074699999999999989e+00 1.060582041362081654e+06
9.103999999999999204e+00 1.061635870114367921e+06
9.133300000000000196e+00 1.061230054197226185e+06
9.162599999999999412e+00 1.059688007837139070e+06
9.191800000000000637e+00 1.057450340176707599e+06
9.221099999999999852e+00 1.054776988350735977e+06
9.250400000000000844e+00 1.051788200395074906e+06
9.279700000000000060e+00 1.048624556961869821e+06
9.308899999999999508e+00 1.045331039218221908e+06
9.338200000000000500e+00 1.041785622160570347e+06
9.367499999999999716e+00 1.037726916915263282e+06
9.396699999999999164e+00 1.033118551926254993e+06
9.426000000000000156e+00 1.028245214242915856e+06
9.455299999999999372e+00 1.023338426397940028e+06
9.484600000000000364e+00 1.018253185569775989e+06
9.513799999999999812e+00 1.012587261275950470e+06
9.543100000000000804e+00 1.006123785783124855e+06
9.572400000000000020e+00 9.994326591476623435e+05
9.601699999999999235e+00 9.935738261503112735e+05
9.630900000000000460e+00 9.892897312193923863e+05
9.660199999999999676e+00 9.862423738640178926e+05
9.689500000000000668e+00 9.834975676803077804e+05
9.718799999999999883e+00 9.805654794553738320e+05
9.747999999999999332e+00 9.774140098184144590e+05
9.777300000000000324e+00 9.742023882921574404e+05
9.806599999999999540e+00 9.709791977137542563e+05
9.835800000000000765e+00 9.679381896142181940e+05
9.865099999999999980e+00 9.653669340805588290e+05
9.894399999999999196e+00 9.632878033530025277e+05
9.923700000000000188e+00 9.614907645254852250e+05
9.952899999999999636e+00 9.598150608096481301e+05
9.982200000000000628e+00 9.583960503817782737e+05
1.001149999999999984e+01 9.570296636268026195e+05
1.004080000000000084e+01 9.548202001243536361e+05
1.007000000000000028e+01 9.509554125951933675e+05
1.009929999999999950e+01 9.456500405272769276e+05
1.012860000000000049e+01 9.397836676747151650e+05
1.015789999999999971e+01 9.343134069142244989e+05
1.018709999999999916e+01 9.298794010297376662e+05
1.021640000000000015e+01 9.269425843988492852e+05
1.024569999999999936e+01 9.255800115996825043e+05
1.027490000000000059e+01 9.255915105965945404e+05
1.030419999999999980e+01 9.266757772513098316e+05
1.033350000000000080e+01 9.282818615045585902e+05
1.036280000000000001e+01 9.296807162423066329e+05
1.039199999999999946e+01 9.306591632234532153e+05
1.042130000000000045e+01 9.314412984443166060e+05
1.045059999999999967e+01 9.319180393246477470e+05
1.047990000000000066e+01 9.316889365048091859e+05
1.050910000000000011e+01 9.304608487468305975e+05
1.053839999999999932e+01 9.280788451503979741e+05
1.056770000000000032e+01 9.244646004105710890e+05
1.059699999999999953e+01 9.196888573795607081e+05
1.062620000000000076e+01 9.143603052266465966e+05
1.065549999999999997e+01 9.090830423518149182e+05
1.068479999999999919e+01 9.041779800197881414e+05
1.071400000000000041e+01 8.994463403741153888e+05
1.074329999999999963e+01 8.944215970952347852e+05
1.077260000000000062e+01 8.887143841898159590e+05
1.080189999999999984e+01 8.823841931754436810e+05
1.083109999999999928e+01 8.755693485768587561e+05
1.086040000000000028e+01 8.682433853331541177e+05
1.088969999999999949e+01 8.604860314471138408e+05
1.091900000000000048e+01 8.525230722172460519e+05
1.094819999999999993e+01 8.446079748460846022e+05
1.097749999999999915e+01 8.371328582992480369e+05
1.100680000000000014e+01 8.303499855413429905e+05
1.103609999999999935e+01 8.243779165924586123e+05
1.106530000000000058e+01 8.189104769675049465e+05
1.109459999999999980e+01 8.134312485956423916e+05
1.112390000000000079e+01 8.073452196585458005e+05
1.115310000000000024e+01 8.004546060828838963e+05
1.118239999999999945e+01 7.927931987882249523e+05
1.121170000000000044e+01 7.850078917694605188e+05
1.124099999999999966e+01 7.778237879023735877e+05
1.127020000000000088e+01 7.714798913883822970e+05
1.129950000000000010e+01 7.656794578772212844e+05
1.132879999999999932e+01 7.599193782287538052e+05
1.135810000000000031e+01 7.540955805305591784e+05
1.138729999999999976e+01 7.484924891885321122e+05
1.141660000000000075e+01 7.435013722922401503e+05
1.144589999999999996e+01 7.392031419800027506e+05
1.147519999999999918e+01 7.357662306711209239e+05
1.150440000000000040e+01 7.334867873878587270e+05
1.153369999999999962e+01 7.325310240481763612e+05
1.156300000000000061e+01 7.325920476177218370e+05
1.159229999999999983e+01 7.331963317440925166e+05
1.162149999999999928e+01 7.336972840685938718e+05
1.165080000000000027e+01 7.339264914535782300e+05
