# energy(eV) alpha
0.000000000000000000e+00 0.000000000000000000e+00
4.039999999999999841e-02 2.818015399393234977e-01
8.079999999999999682e-02 9.661542941471766843e-01
1.212000000000000022e-01 2.294536602026998384e+00
1.615000000000000047e-01 4.022801820635600656e+00
2.018999999999999961e-01 6.436869422673315633e+00
2.422999999999999876e-01 8.931220432356800742e+00
2.827000000000000068e-01 1.210896819202752539e+01
3.230999999999999983e-01 1.576887127689064982e+01
3.634999999999999898e-01 2.027237599452564609e+01
4.038999999999999813e-01 2.533764438551110842e+01
4.441999999999999837e-01 3.007280330556623582e+01
4.845999999999999752e-01 3.617892814471787233e+01
5.250000000000000222e-01 4.232309656910125995e+01
5.654000000000000137e-01 4.950894356254289619e+01
6.058000000000000052e-01 5.665156363933575534e+01
6.461999999999999966e-01 6.491502211063470895e+01
6.864999999999999991e-01 7.304253288301805469e+01
7.268999999999999906e-01 8.237883972124976140e+01
7.672999999999999821e-01 9.227231671440540595e+01
8.076999999999999735e-01 1.019170648286849712e+02
8.480999999999999650e-01 1.128787731881836862e+02
8.884999999999999565e-01 1.235117521617634821e+02
9.288999999999999480e-01 1.364601908843958995e+02
9.691999999999999504e-01 1.490623582107841401e+02
1.009600000000000053e+00 1.622295423875789595e+02
1.050000000000000044e+00 1.759439878519909257e+02
1.090400000000000036e+00 1.902063113498847997e+02
1.130800000000000027e+00 2.050130299477468441e+02
1.171200000000000019e+00 2.215247939495583012e+02
1.211600000000000010e+00 2.374588756578745290e+02
1.251900000000000013e+00 2.539122973975631226e+02
1.292300000000000004e+00 2.709261659975467182e+02
1.332699999999999996e+00 2.911107272629667477e+02
1.373099999999999987e+00 3.092769951555155785e+02
1.413499999999999979e+00 3.293713478666302876e+02
1.453899999999999970e+00 3.515089474507509522e+02
1.494199999999999973e+00 3.713646890461409384e+02
1.534599999999999964e+00 3.947962461529819507e+02
1.574999999999999956e+00 4.173535605726431186e+02
1.615399999999999947e+00 4.421051100731516499e+02
1.655799999999999939e+00 4.675335495309763019e+02
1.696199999999999930e+00 4.902981943976650996e+02
1.736599999999999921e+00 5.186929036293009858e+02
1.776899999999999924e+00 5.460605423207180138e+02
1.817299999999999915e+00 5.741206529412507962e+02
1.857699999999999907e+00 6.046647721491484617e+02
1.898099999999999898e+00 6.340750551076143893e+02
1.938499999999999890e+00 6.660388068048500827e+02
1.978900000000000103e+00 6.987354118633350026e+02
2.019299999999999873e+00 7.341192022493966078e+02
2.059600000000000097e+00 7.682430556849079721e+02
2.100000000000000089e+00 8.051693266252559624e+02
2.140400000000000080e+00 8.407888654754508480e+02
2.180800000000000072e+00 8.792366717709443265e+02
2.221200000000000063e+00 9.206205028681670228e+02
2.261600000000000055e+00 9.606402060883733611e+02
2.302000000000000046e+00 1.005900744833518274e+03
2.342299999999999827e+00 1.049746570110540461e+03
2.382699999999999818e+00 1.094446541960329341e+03
2.423099999999999810e+00 1.144659466845017050e+03
2.463499999999999801e+00 1.193452756278698416e+03
2.503899999999999793e+00 1.243102427798676445e+03
2.544299999999999784e+00 1.298529904197115229e+03
2.584600000000000009e+00 1.352420220420372516e+03
2.625000000000000000e+00 1.409806786024404346e+03
2.665399999999999991e+00 1.473299713389522594e+03
2.705799999999999983e+00 1.530114517656729504e+03
2.746199999999999974e+00 1.595713234033619756e+03
2.786599999999999966e+00 1.662398051894499304e+03
2.826999999999999957e+00 1.730157735586535409e+03
2.867300000000000182e+00 1.801665826609710166e+03
2.907700000000000173e+00 1.877119794443960018e+03
2.948100000000000165e+00 1.950934241403080478e+03
2.988500000000000156e+00 2.034357561230457122e+03
3.028900000000000148e+00 2.119067445093290189e+03
3.069300000000000139e+00 2.207923777324268940e+03
3.109700000000000131e+00 2.298090360268188306e+03
3.149999999999999911e+00 2.395401097019015651e+03
3.190399999999999903e+00 2.494193130069145354e+03
3.230799999999999894e+00 2.600416849924639337e+03
3.271199999999999886e+00 2.708096841239528203e+03
3.311599999999999877e+00 2.823449761592998129e+03
3.351999999999999869e+00 2.940309729695123224e+03
3.392399999999999860e+00 3.071325165924941302e+03
3.432700000000000085e+00 3.203977526338463122e+03
3.473100000000000076e+00 3.341635421765663068e+03
3.513500000000000068e+00 3.490705072797750290e+03
3.553900000000000059e+00 3.648232964485501725e+03
3.594300000000000050e+00 3.810890443547555151e+03
3.634700000000000042e+00 3.985515485029132378e+03
3.674999999999999822e+00 4.175491340217249672e+03
3.715399999999999814e+00 4.371140957031096150e+03
3.755799999999999805e+00 4.586042405145954945e+03
3.796199999999999797e+00 4.813634330445639534e+03
3.836599999999999788e+00 5.057507564593400275e+03
3.876999999999999780e+00 5.317844879308791860e+03
3.917400000000000215e+00 5.609042685109181548e+03
3.957699999999999996e+00 5.917064598441435010e+03
3.998099999999999987e+00 6.260318777072179728e+03
4.038499999999999979e+00 6.638987945979673896e+03
4.078899999999999970e+00 7.057131643461623753e+03
4.119299999999999962e+00 7.529747733338567741e+03
4.159699999999999953e+00 8.068345179716838174e+03
4.200099999999999945e+00 8.695722661565991075e+03
4.240400000000000169e+00 9.438427067652924961e+03
4.280800000000000161e+00 1.035395850154427535e+04
4.321200000000000152e+00 1.150755110935761149e+04
4.361600000000000144e+00 1.302285598541813124e+04
4.402000000000000135e+00 1.501167793210945638e+04
4.442400000000000126e+00 1.744939027636391984e+04
4.482700000000000351e+00 2.005831491617727079e+04
4.523100000000000342e+00 2.247854173184963656e+04
4.563500000000000334e+00 2.458583509083068930e+04
4.603900000000000325e+00 2.677372278313905190e+04
4.644300000000000317e+00 2.950217544005813033e+04
4.684700000000000308e+00 3.302552300579591974e+04
4.725100000000000300e+00 3.753929046650760574e+04
4.765399999999999636e+00 4.313533352586409455e+04
4.805799999999999628e+00 4.972113480315736524e+04
4.846199999999999619e+00 5.729258053593907243e+04
4.886599999999999611e+00 6.596025731396240008e+04
4.926999999999999602e+00 7.574991394313547062e+04
4.967399999999999594e+00 8.669057736619553179e+04
5.007799999999999585e+00 9.858601756344859314e+04
5.048099999999999810e+00 1.110014591493943153e+05
5.088499999999999801e+00 1.236693654238790041e+05
5.128899999999999793e+00 1.368586695664194995e+05
5.169299999999999784e+00 1.502827725669435458e+05
5.209699999999999775e+00 1.624330047448489931e+05
5.250099999999999767e+00 1.721465709925265692e+05
5.290499999999999758e+00 1.799660043942273478e+05
5.330799999999999983e+00 1.875122533644703508e+05
5.371199999999999974e+00 1.952615001977858483e+05
5.411599999999999966e+00 2.018133611016088107e+05
5.451999999999999957e+00 2.045671065075508086e+05
5.492399999999999949e+00 2.022651020271935267e+05
5.532799999999999940e+00 1.967740412795456359e+05
5.573100000000000165e+00 1.907432086110473028e+05
5.613500000000000156e+00 1.866233959723384760e+05
5.653900000000000148e+00 1.854481160343675874e+05
5.694300000000000139e+00 1.872115786077915400e+05
5.734700000000000131e+00 1.915223913274890801e+05
5.775100000000000122e+00 1.978239920703207026e+05
5.815500000000000114e+00 2.058689509994267137e+05
5.855800000000000338e+00 2.152545686667040573e+05
5.896200000000000330e+00 2.246768630997852015e+05
5.936600000000000321e+00 2.326219624722928565e+05
5.977000000000000313e+00 2.391091981179142895e+05
6.017400000000000304e+00 2.455284285160458530e+05
6.057800000000000296e+00 2.526152729782925744e+05
6.098200000000000287e+00 2.610436515683598409e+05
6.138499999999999623e+00 2.716609296627552831e+05
6.178899999999999615e+00 2.848775500815050327e+05
6.219299999999999606e+00 3.000176207677373895e+05
6.259699999999999598e+00 3.155528091136547155e+05
6.300099999999999589e+00 3.307782054041589727e+05
6.340499999999999581e+00 3.463048479384752573e+05
6.380799999999999805e+00 3.631542479628291330e+05
6.421199999999999797e+00 3.810293522597184638e+05
6.461599999999999788e+00 3.985082582415767829e+05
6.501999999999999780e+00 4.149842104913707008e+05
6.542399999999999771e+00 4.305780018623911892e+05
6.582799999999999763e+00 4.450036804214316071e+05
6.623199999999999754e+00 4.587952979925499531e+05
6.663499999999999979e+00 4.723558085163837532e+05
6.703899999999999970e+00 4.850333051326344721e+05
6.744299999999999962e+00 4.962016349086774280e+05
6.784699999999999953e+00 5.061302302349894308e+05
6.825099999999999945e+00 5.150674622721724445e+05
6.865499999999999936e+00 5.226202817704251502e+05
6.905899999999999928e+00 5.283086440579224145e+05
6.946200000000000152e+00 5.321746613236080157e+05
6.986600000000000144e+00 5.347189262283102144e+05
7.027000000000000135e+00 5.364769458350584609e+05
7.067400000000000126e+00 5.380802717492539668e+05
7.107800000000000118e+00 5.402079435222048778e+05
7.148200000000000109e+00 5.428506689118824434e+05
7.188600000000000101e+00 5.456283921607967932e+05
7.228900000000000325e+00 5.483086877808760619e+05
7.269300000000000317e+00 5.509336894244416617e+05
7.309700000000000308e+00 5.534673625072750729e+05
7.350100000000000300e+00 5.554773410954358988e+05
7.390500000000000291e+00 5.566836292692309944e+05
7.430900000000000283e+00 5.580647146201087162e+05
7.471199999999999619e+00 5.609867763409614563e+05
7.511599999999999611e+00 5.659441637609599857e+05
7.551999999999999602e+00 5.721632855961828027e+05
7.592399999999999594e+00 5.786400442228596658e+05
7.632799999999999585e+00 5.841033999863564968e+05
7.673199999999999577e+00 5.879497679466285044e+05
7.713599999999999568e+00 5.922413133563851006e+05
7.753899999999999793e+00 5.991095986739121145e+05
7.794299999999999784e+00 6.076163254955180455e+05
7.834699999999999775e+00 6.159290653115555178e+05
7.875099999999999767e+00 6.240658421303776558e+05
7.915499999999999758e+00 6.320635076557057910e+05
7.955899999999999750e+00 6.394265671034826664e+05
7.996299999999999741e+00 6.455796539065387333e+05
8.036599999999999966e+00 6.496124383720980259e+05
8.076999999999999957e+00 6.513775622159896884e+05
8.117399999999999949e+00 6.522434473825792084e+05
8.157799999999999940e+00 6.532090636158507550e+05
8.198199999999999932e+00 6.546864472901228582e+05
8.238599999999999923e+00 6.573233281505190535e+05
8.278999999999999915e+00 6.615373163108645240e+05
8.319300000000000139e+00 6.677016857302902499e+05
8.359700000000000131e+00 6.764132103500715457e+05
8.400100000000000122e+00 6.883734081414020620e+05
8.440500000000000114e+00 7.033553739498829236e+05
8.480900000000000105e+00 7.200697270035018446e+05
8.521300000000000097e+00 7.377983249064204283e+05
8.561600000000000321e+00 7.565266685423891759e+05
8.602000000000000313e+00 7.772536947162082652e+05
8.642400000000000304e+00 8.016175948161267443e+05
8.682800000000000296e+00 8.294741374442293309e+05
8.723200000000000287e+00 8.584320982200725703e+05
8.763600000000000279e+00 8.845452494246304268e+05
8.804000000000000270e+00 9.010999441120048286e+05
8.844300000000000495e+00 9.021877885453574127e+05
8.884700000000000486e+00 8.889634095319908811e+05
8.925100000000000477e+00 8.685990012602434726e+05
8.965500000000000469e+00 8.493084888677092968e+05
9.005900000000000460e+00 8.368957111634656321e+05
9.046300000000000452e+00 8.336948957579060225e+05
9.086700000000000443e+00 8.384252176130870357e+05
9.127000000000000668e+00 8.469916412677144399e+05
9.167400000000000659e+00 8.557194878946475219e+05
9.207800000000000651e+00 8.618370842561151367e+05
9.248200000000000642e+00 8.641144000685913488e+05
9.288600000000000634e+00 8.638033249066006392e+05
9.329000000000000625e+00 8.625787017020719359e+05
9.369300000000000850e+00 8.613710118271398824e+05
9.409700000000000841e+00 8.607758735924320063e+05
9.450100000000000833e+00 8.606722006899247644e+05
9.490500000000000824e+00 8.600283922924316721e+05
9.530900000000000816e+00 8.581479868886255426e+05
9.571300000000000807e+00 8.554529318855763413e+05
9.611700000000000799e+00 8.526180247093801154e+05
9.651999999999999247e+00 8.505312353332848288e+05
9.692399999999999238e+00 8.502407195299128070e+05
9.732799999999999230e+00 8.517319122010034043e+05
9.773199999999999221e+00 8.544485798050814774e+05
9.813599999999999213e+00 8.586499200222778600e+05
9.853999999999999204e+00 8.646504920617850730e+05
9.894399999999999196e+00 8.714320776112095919e+05
9.934699999999999420e+00 8.778719293462422211e+05
9.975099999999999412e+00 8.835027956589112291e+05
1.001549999999999940e+01 8.880554508298158180e+05
1.005589999999999939e+01 8.903015353739999700e+05
1.009629999999999939e+01 8.892703422606531531e+05
1.013669999999999938e+01 8.852916304698046297e+05
1.017709999999999937e+01 8.791102677956175758e+05
1.021739999999999959e+01 8.713118612364714500e+05
1.025779999999999959e+01 8.620054992303627077e+05
1.029819999999999958e+01 8.512221033111171564e+05
1.033859999999999957e+01 8.404874690919028362e+05
1.037899999999999956e+01 8.315336464849918848e+05
1.041939999999999955e+01 8.251411228650441626e+05
1.045969999999999978e+01 8.216127146662683226e+05
1.050009999999999977e+01 8.202745696100561181e+05
1.054049999999999976e+01 8.194041415539998561e+05
1.058089999999999975e+01 8.180904928136231611e+05
1.062129999999999974e+01 8.170845073446711758e+05
1.066169999999999973e+01 8.177588251302299323e+05
1.070209999999999972e+01 8.205882339293247787e+05
1.074239999999999995e+01 8.246662854012864409e+05
1.078279999999999994e+01 8.285478528199390275e+05
1.082319999999999993e+01 8.316504543549864320e+05
1.086359999999999992e+01 8.348417889028443024e+05
1.090399999999999991e+01 8.388234633502343204e+05
1.094439999999999991e+01 8.423397245010160841e+05
1.098479999999999990e+01 8.446537296155887889e+05
1.102510000000000012e+01 8.463084727538806619e+05
1.106550000000000011e+01 8.479528542346969480e+05
1.110590000000000011e+01 8.503716769347215304e+05
1.114630000000000010e+01 8.534731671991125913e+05
1.118670000000000009e+01 8.563987143309108214e+05
1.122710000000000008e+01 8.585776986135314219e+05
1.126750000000000007e+01 8.604357908191336319e+05
1.130780000000000030e+01 8.632021802003122866e+05
1.134820000000000029e+01 8.668244172433956992e+05
1.138860000000000028e+01 8.708252211786966072e+05
1.142900000000000027e+01 8.751769814590866445e+05
1.146940000000000026e+01 8.806467096903116908e+05
1.150980000000000025e+01 8.880073803372366820e+05
1.155010000000000048e+01 8.967130040043334011e+05
1.159050000000000047e+01 9.054638796351143392e+05
1.163090000000000046e+01 9.135001073910886189e+05
1.167130000000000045e+01 9.212320181785352761e+05
1.171170000000000044e+01 9.283817065596241737e+05
1.175210000000000043e+01 9.333316171924001537e+05
1.179250000000000043e+01 9.353605627540278947e+05
1.183280000000000065e+01 9.354125207373267040e+05
1.187320000000000064e+01 9.350116856763390824e+05
1.191360000000000063e+01 9.352009988591569709e+05
1.195400000000000063e+01 9.352997678242430557e+05
1.199440000000000062e+01 9.338926890247099800e+05
1.203480000000000061e+01 9.310947468422671081e+05
1.207520000000000060e+01 9.277260374494341668e+05
1.211550000000000082e+01 9.229776623052178184e+05
1.215590000000000082e+01 9.162374390754216583e+05
1.219630000000000081e+01 9.083614474220258417e+05
1.223670000000000080e+01 9.009062592400324065e+05
1.227710000000000079e+01 8.949649526292452356e+05
1.231750000000000078e+01 8.905792016450470546e+05
1.235779999999999923e+01 8.869883980984492227e+05
1.239819999999999922e+01 8.838541428198841168e+05
1.243859999999999921e+01 8.815071654332211474e+05
1.247899999999999920e+01 8.798027795856300509e+05
1.251939999999999920e+01 8.783279167786837788e+05
1.255979999999999919e+01 8.771115174430216430e+05
1.260019999999999918e+01 8.769864924381540623e+05
1.264049999999999940e+01 8.780644185108485399e+05
1.268089999999999939e+01 8.795624185596235329e+05
1.272129999999999939e+01 8.814427898290317971e+05
1.276169999999999938e+01 8.838194708399672527e+05
1.280209999999999937e+01 8.860749613155992702e+05
1.284249999999999936e+01 8.874240475320882397e+05
1.288289999999999935e+01 8.878806507762597175e+05
1.292319999999999958e+01 8.878063107273859205e+05
1.296359999999999957e+01 8.877947054351023398e+05
1.300399999999999956e+01 8.875610740232883254e+05
1.304439999999999955e+01 8.869888470547649777e+05
1.308479999999999954e+01 8.869065322583194356e+05
1.312519999999999953e+01 8.884270195014405763e+05
1.316559999999999953e+01 8.917795909448048333e+05
1.320589999999999975e+01 8.965790388539395062e+05
1.324629999999999974e+01 9.023319451653748984e+05
1.328669999999999973e+01 9.088173454951477470e+05
1.332709999999999972e+01 9.166921930615464225e+05
1.336749999999999972e+01 9.269605735250476282e+05
1.340789999999999971e+01 9.391358835425584111e+05
1.344819999999999993e+01 9.516468348785388516e+05
1.348859999999999992e+01 9.624175357838149648e+05
1.352899999999999991e+01 9.697020751137830084e+05
1.356939999999999991e+01 9.742000411634122720e+05
1.360979999999999990e+01 9.778981451895454666e+05
1.365019999999999989e+01 9.805382904315320775e+05
1.369059999999999988e+01 9.802319072526316158e+05
1.373090000000000011e+01 9.764044820247974712e+05
1.377130000000000010e+01 9.692485301787430653e+05
1.381170000000000009e+01 9.595943283933156636e+05
1.385210000000000008e+01 9.489504466641257750e+05
1.389250000000000007e+01 9.394822440320042660e+05
1.393290000000000006e+01 9.330007127977828495e+05
1.397330000000000005e+01 9.291814826631230535e+05
1.401360000000000028e+01 9.253486169524106663e+05
1.405400000000000027e+01 9.194381252575451508e+05
1.409440000000000026e+01 9.127330584181880113e+05
1.413480000000000025e+01 9.084206592274092836e+05
1.417520000000000024e+01 9.089076005522062769e+05
1.421560000000000024e+01 9.128128091407601023e+05
1.425590000000000046e+01 9.167045200068866834e+05
1.429630000000000045e+01 9.182387092755010817e+05
1.433670000000000044e+01 9.169486179795839125e+05
1.437710000000000043e+01 9.139604006249808008e+05
1.441750000000000043e+01 9.111919647868692409e+05
1.445790000000000042e+01 9.100316938525994774e+05
1.449830000000000041e+01 9.100251617327894783e+05
1.453860000000000063e+01 9.092887574062490603e+05
1.457900000000000063e+01 9.063047961299140006e+05
1.461940000000000062e+01 9.013972347912448458e+05
1.465980000000000061e+01 8.957123797523165122e+05
1.470020000000000060e+01 8.909685909591616364e+05
1.474060000000000059e+01 8.892147292861734750e+05
1.478100000000000058e+01 8.924915569262737408e+05
1.482130000000000081e+01 9.037869772069837200e+05
1.486170000000000080e+01 9.273475079934800742e+05
1.490210000000000079e+01 9.663992376276033465e+05
1.494250000000000078e+01 1.020084268327845610e+06
1.498290000000000077e+01 1.081916661619852995e+06
1.502330000000000076e+01 1.140425151872374117e+06
1.506370000000000076e+01 1.182157172937502386e+06
1.510399999999999920e+01 1.199188829637331655e+06
1.514439999999999920e+01 1.194535801444648299e+06
1.518479999999999919e+01 1.175215593607363291e+06
1.522519999999999918e+01 1.146725279281396884e+06
1.526559999999999917e+01 1.113496033895620145e+06
1.530599999999999916e+01 1.080029363416985841e+06
1.534629999999999939e+01 1.048891404734271346e+06
1.538669999999999938e+01 1.021589903673825087e+06
1.542709999999999937e+01 9.994440870507885702e+05
1.546749999999999936e+01 9.820296204596256139e+05
1.550789999999999935e+01 9.687713182648258517e+05
1.554829999999999934e+01 9.593912103355188156e+05
1.558869999999999933e+01 9.537899810929008527e+05
1.562899999999999956e+01 9.520687228163591353e+05
1.566939999999999955e+01 9.537574986368006794e+05
1.570979999999999954e+01 9.577176212301572086e+05
1.575019999999999953e+01 9.629946169825161342e+05
1.579059999999999953e+01 9.694617143911476014e+05
1.583099999999999952e+01 9.773209789867828367e+05
1.587139999999999951e+01 9.857164830864217365e+05
1.591169999999999973e+01 9.930171676972956629e+05
1.595209999999999972e+01 9.982118823248218978e+05
1.599249999999999972e+01 1.000764204012962757e+06
1.603290000000000148e+01 1.000044749495000578e+06
1.607329999999999970e+01 9.966996319871406304e+05
