# energy(eV) alpha
0.000000000000000000e+00 0.000000000000000000e+00
2.900000000000000147e-02 1.393630115588980090e+00
5.800000000000000294e-02 5.531144772408494781e+00
8.699999999999999400e-02 1.247540058602408486e+01
1.160000000000000059e-01 2.211673870506402295e+01
1.451000000000000068e-01 3.473276820891038597e+01
1.741000000000000048e-01 5.027573807904541070e+01
2.031000000000000028e-01 6.867354518333584679e+01
2.321000000000000008e-01 9.009041198371751591e+01
2.610999999999999988e-01 1.143901331151925973e+02
2.901000000000000245e-01 1.419911418140253261e+02
3.190999999999999948e-01 1.727756407265739256e+02
3.481000000000000205e-01 2.067951326198499657e+02
3.771999999999999797e-01 2.444414978753749779e+02
4.062000000000000055e-01 2.857052633988222965e+02
4.351999999999999758e-01 3.307508985587687675e+02
4.642000000000000015e-01 3.796900578653498428e+02
4.932000000000000273e-01 4.322639225507956553e+02
5.221999999999999975e-01 4.896629656163368054e+02
5.512000000000000233e-01 5.512993850277615593e+02
5.802000000000000490e-01 6.181229673179545898e+02
6.092999999999999527e-01 6.900180134945321697e+02
6.382999999999999785e-01 7.669110911298046176e+02
6.673000000000000043e-01 8.500295944356656719e+02
6.963000000000000300e-01 9.396374911267099606e+02
7.252999999999999448e-01 1.035467230258929021e+03
7.542999999999999705e-01 1.139336952463170746e+03
7.832999999999999963e-01 1.249346605261485138e+03
8.123000000000000220e-01 1.369721858874459940e+03
8.414000000000000368e-01 1.498114497961378675e+03
8.703999999999999515e-01 1.637524833880880806e+03
8.993999999999999773e-01 1.787321037535371261e+03
9.284000000000000030e-01 1.950509781121307242e+03
9.574000000000000288e-01 2.126293156127263956e+03
9.864000000000000545e-01 2.319306121765233456e+03
1.015400000000000080e+00 2.528120077901294735e+03
1.044399999999999995e+00 2.757704721033426267e+03
1.073499999999999899e+00 3.009173288038733517e+03
1.102500000000000036e+00 3.286612287894343353e+03
1.131499999999999950e+00 3.595222000305894653e+03
1.160500000000000087e+00 3.938602818651170764e+03
1.189500000000000002e+00 4.326193849054275233e+03
1.218499999999999917e+00 4.762974690044620729e+03
1.247500000000000053e+00 5.264300458724118471e+03
1.276499999999999968e+00 5.843745062151771890e+03
1.305500000000000105e+00 6.522470625618629128e+03
1.334600000000000009e+00 7.334906252229028723e+03
1.363599999999999923e+00 8.319136515013184180e+03
1.392600000000000060e+00 9.541651164060773226e+03
1.421599999999999975e+00 1.108701560502779103e+04
1.450599999999999890e+00 1.305861529452667855e+04
1.479600000000000026e+00 1.553805694263140686e+04
1.508599999999999941e+00 1.848627845216776768e+04
1.537600000000000078e+00 2.171064737196487476e+04
1.566699999999999982e+00 2.499795003876082410e+04
1.595699999999999896e+00 2.821325926142991011e+04
1.624700000000000033e+00 3.146086258289549369e+04
1.653699999999999948e+00 3.519988618658304767e+04
1.682700000000000085e+00 3.968004069595343753e+04
1.711699999999999999e+00 4.473518909017770056e+04
1.740699999999999914e+00 5.015373957134375814e+04
1.769700000000000051e+00 5.538426514317485999e+04
1.798799999999999955e+00 5.960264563999040547e+04
1.827800000000000091e+00 6.288647480491754686e+04
1.856800000000000006e+00 6.637773102336472948e+04
1.885799999999999921e+00 7.099856747059615736e+04
1.914800000000000058e+00 7.718507911787758349e+04
1.943799999999999972e+00 8.516417847631234326e+04
1.972800000000000109e+00 9.438961428707234154e+04
2.001799999999999802e+00 1.035124797117714770e+05
2.030899999999999928e+00 1.113623679021085991e+05
2.059899999999999842e+00 1.177569033537805954e+05
2.088900000000000201e+00 1.235315549975756730e+05
2.117900000000000116e+00 1.298490571650302008e+05
2.146900000000000031e+00 1.375703406499661214e+05
2.175899999999999945e+00 1.469239699574127153e+05
2.204899999999999860e+00 1.576967778052312206e+05
2.233900000000000219e+00 1.691148764010095911e+05
2.262999999999999901e+00 1.794949940870015707e+05
2.291999999999999815e+00 1.872455359465625661e+05
2.321000000000000174e+00 1.918603333902570885e+05
2.350000000000000089e+00 1.934971941475045169e+05
2.379000000000000004e+00 1.930405683729011507e+05
2.407999999999999918e+00 1.922789954425429460e+05
2.436999999999999833e+00 1.927083451942739484e+05
2.466000000000000192e+00 1.946276144529969897e+05
2.495000000000000107e+00 1.972979196807663247e+05
2.524099999999999788e+00 2.000727857788863184e+05
2.553100000000000147e+00 2.029936739988739719e+05
2.582100000000000062e+00 2.069140062239218678e+05
2.611099999999999977e+00 2.126039755951841071e+05
2.640099999999999891e+00 2.194088470249533711e+05
2.669099999999999806e+00 2.255586281420085288e+05
2.698100000000000165e+00 2.299896472933143668e+05
2.727100000000000080e+00 2.334110411886440997e+05
2.756200000000000205e+00 2.375853078935565136e+05
2.785200000000000120e+00 2.440617465211304370e+05
2.814200000000000035e+00 2.532494639286001329e+05
2.843199999999999950e+00 2.639881133160980535e+05
2.872199999999999864e+00 2.740199887014977285e+05
2.901199999999999779e+00 2.810425716551739606e+05
2.930200000000000138e+00 2.839303572751120664e+05
2.959200000000000053e+00 2.831530535050375038e+05
2.988300000000000178e+00 2.804260371599031496e+05
3.017300000000000093e+00 2.778391520630940213e+05
3.046300000000000008e+00 2.768374014977401239e+05
3.075299999999999923e+00 2.776862252122589853e+05
3.104299999999999837e+00 2.799495103624662734e+05
3.133300000000000196e+00 2.830031891898559406e+05
3.162300000000000111e+00 2.863198454647219041e+05
3.191300000000000026e+00 2.897030221027488587e+05
3.220400000000000151e+00 2.934422833624503692e+05
3.249400000000000066e+00 2.976810620907380944e+05
3.278399999999999981e+00 3.020002245095273247e+05
3.307399999999999896e+00 3.058398840535213239e+05
3.336399999999999810e+00 3.088213676306018024e+05
3.365400000000000169e+00 3.109348694529304630e+05
3.394400000000000084e+00 3.124459276978942798e+05
3.423399999999999999e+00 3.136783275682674139e+05
3.452500000000000124e+00 3.150288356517743086e+05
3.481500000000000039e+00 3.166687249643738614e+05
3.510499999999999954e+00 3.185035299243851332e+05
3.539499999999999869e+00 3.203108002086045453e+05
3.568499999999999783e+00 3.217949062583494233e+05
3.597500000000000142e+00 3.225010927541493438e+05
3.626500000000000057e+00 3.221787610333578195e+05
3.655499999999999972e+00 3.209509481918003876e+05
3.684499999999999886e+00 3.193216984292869456e+05
3.713600000000000012e+00 3.179388767915117205e+05
3.742599999999999927e+00 3.171665562304620980e+05
3.771599999999999842e+00 3.170916957268265542e+05
3.800600000000000200e+00 3.178652261435690452e+05
3.829600000000000115e+00 3.197266760792155983e+05
3.858600000000000030e+00 3.226323410321017145e+05
3.887599999999999945e+00 3.261927363467172836e+05
3.916599999999999859e+00 3.301574352097699884e+05
3.945699999999999985e+00 3.346076416285191081e+05
3.974699999999999900e+00 3.395636614418433164e+05
4.003700000000000259e+00 3.447300588508619112e+05
4.032700000000000173e+00 3.497999024068866856e+05
4.061700000000000088e+00 3.548373393021075753e+05
4.090700000000000003e+00 3.599791282375046867e+05
4.119699999999999918e+00 3.649632487587115029e+05
4.148699999999999832e+00 3.694466653743897914e+05
4.177800000000000402e+00 3.734091795864342712e+05
4.206800000000000317e+00 3.769580967819242505e+05
4.235800000000000232e+00 3.801230285883951001e+05
4.264800000000000146e+00 3.827767293627272593e+05
4.293800000000000061e+00 3.848736042305963347e+05
4.322799999999999976e+00 3.865633184256408713e+05
4.351799999999999891e+00 3.880366281446309295e+05
4.380799999999999805e+00 3.893562549951676629e+05
4.409900000000000375e+00 3.904442955223763129e+05
4.438900000000000290e+00 3.912346127355792560e+05
4.467900000000000205e+00 3.918099018243862083e+05
4.496900000000000119e+00 3.922872213050433784e+05
4.525900000000000034e+00 3.926976199563996051e+05
4.554899999999999949e+00 3.929587589398791897e+05
4.583899999999999864e+00 3.930006201497496222e+05
4.612899999999999778e+00 3.927332133627886651e+05
4.642000000000000348e+00 3.921009792299026158e+05
4.671000000000000263e+00 3.911519477062717197e+05
4.700000000000000178e+00 3.901665525728684152e+05
4.729000000000000092e+00 3.894302686814461485e+05
4.758000000000000007e+00 3.890802249561355566e+05
4.786999999999999922e+00 3.890832018717852770e+05
4.815999999999999837e+00 3.891244987779128714e+05
4.844999999999999751e+00 3.890256007562710438e+05
4.873999999999999666e+00 3.889463934657183709e+05
4.903100000000000236e+00 3.891250417768260813e+05
4.932100000000000151e+00 3.897185730203400599e+05
4.961100000000000065e+00 3.909057506347794551e+05
4.990099999999999980e+00 3.927996130813432974e+05
5.019099999999999895e+00 3.953181376821585000e+05
5.048099999999999810e+00 3.980221136119305738e+05
5.077099999999999724e+00 4.003421645154817379e+05
5.106099999999999639e+00 4.021132775545704644e+05
5.135200000000000209e+00 4.034171104317381396e+05
5.164200000000000124e+00 4.043680972880724003e+05
5.193200000000000038e+00 4.051977945807332871e+05
5.222199999999999953e+00 4.063078955941929016e+05
5.251199999999999868e+00 4.082900566392341279e+05
5.280199999999999783e+00 4.120112347500409232e+05
5.309199999999999697e+00 4.183672892775242799e+05
5.338199999999999612e+00 4.282574485237253830e+05
5.367300000000000182e+00 4.427312350030001253e+05
5.396300000000000097e+00 4.626033082787529565e+05
5.425300000000000011e+00 4.876938784119799384e+05
5.454299999999999926e+00 5.163459371529332711e+05
5.483299999999999841e+00 5.455586211573533947e+05
5.512299999999999756e+00 5.718506281076647574e+05
5.541299999999999670e+00 5.922668060936457478e+05
5.570299999999999585e+00 6.045778968726558378e+05
5.599400000000000155e+00 6.075959574880029541e+05
5.628400000000000070e+00 6.018497938950669486e+05
5.657399999999999984e+00 5.899719958297001431e+05
5.686399999999999899e+00 5.752284261659147451e+05
5.715399999999999814e+00 5.595598450557611650e+05
5.744399999999999729e+00 5.431310396704331506e+05
5.773399999999999643e+00 5.258813567001399351e+05
5.802399999999999558e+00 5.086847017776707071e+05
5.831500000000000128e+00 4.928016562565797940e+05
5.860500000000000043e+00 4.791805780933822971e+05
5.889499999999999957e+00 4.681814030584961874e+05
5.918499999999999872e+00 4.597388249611276551e+05
5.947499999999999787e+00 4.534354000979073462e+05
5.976499999999999702e+00 4.485929607194284326e+05
6.005499999999999616e+00 4.444854991670188028e+05
6.034500000000000419e+00 4.406400453140087775e+05
6.063500000000000334e+00 4.368802624111305340e+05
6.092600000000000016e+00 4.334097388649201021e+05
6.121599999999999930e+00 4.305461952209671144e+05
6.150599999999999845e+00 4.284836727011075709e+05
6.179599999999999760e+00 4.273512611522633815e+05
6.208599999999999675e+00 4.275177204603081336e+05
6.237599999999999589e+00 4.293181553775690845e+05
6.266600000000000392e+00 4.327397172750217724e+05
6.295600000000000307e+00 4.373237198758341838e+05
6.324699999999999989e+00 4.425307100970560568e+05
6.353699999999999903e+00 4.481770290666603833e+05
6.382699999999999818e+00 4.544257526162082213e+05
6.411699999999999733e+00 4.614866526822809828e+05
6.440699999999999648e+00 4.695293514644952375e+05
6.469699999999999562e+00 4.786683194154867670e+05
6.498700000000000365e+00 4.889104399152467959e+05
6.527700000000000280e+00 5.002066091027032235e+05
6.556799999999999962e+00 5.124953353376594023e+05
6.585799999999999876e+00 5.258494106012277771e+05
6.614799999999999791e+00 5.405132599855316803e+05
6.643799999999999706e+00 5.564487085041450337e+05
6.672799999999999621e+00 5.730663615481200395e+05
6.701800000000000423e+00 5.898646454902723199e+05
6.730800000000000338e+00 6.068155362652528565e+05
6.759800000000000253e+00 6.238426117733325809e+05
6.788899999999999935e+00 6.405896612201940734e+05
6.817899999999999849e+00 6.567282512603348587e+05
6.846899999999999764e+00 6.721240213524464052e+05
6.875899999999999679e+00 6.865875959963867208e+05
6.904899999999999594e+00 6.999624275128451409e+05
6.933900000000000396e+00 7.125240512173284078e+05
6.962900000000000311e+00 7.248619948780634440e+05
6.991900000000000226e+00 7.373661382885212079e+05
7.020999999999999908e+00 7.501002610468011117e+05
7.049999999999999822e+00 7.630652529092036420e+05
7.078999999999999737e+00 7.762915064145770157e+05
7.107999999999999652e+00 7.897314625068027526e+05
7.136999999999999567e+00 8.033413237976735691e+05
7.166000000000000369e+00 8.169822874692264013e+05
7.195000000000000284e+00 8.302251744001214392e+05
7.224000000000000199e+00 8.424571707487388048e+05
7.253000000000000114e+00 8.530438525682454929e+05
7.282099999999999795e+00 8.618145949085925240e+05
7.311099999999999710e+00 8.690070381189379841e+05
7.340099999999999625e+00 8.750236908843072597e+05
7.369100000000000428e+00 8.801208355153613957e+05
7.398100000000000342e+00 8.844489513805622701e+05
7.427100000000000257e+00 8.881066182221635245e+05
7.456100000000000172e+00 8.911927101730682189e+05
7.485100000000000087e+00 8.940387459557101829e+05
7.514199999999999768e+00 8.970416035355534405e+05
7.543199999999999683e+00 9.003690221423816402e+05
7.572199999999999598e+00 9.040657389028808102e+05
7.601200000000000401e+00 9.082122294696377357e+05
7.630200000000000315e+00 9.128714503570187371e+05
7.659200000000000230e+00 9.179631637249666965e+05
7.688200000000000145e+00 9.230968014907280449e+05
7.717200000000000060e+00 9.278213815947113326e+05
7.746299999999999741e+00 9.318989884217779618e+05
7.775299999999999656e+00 9.351193172325122869e+05
7.804299999999999571e+00 9.374381667728737229e+05
7.833300000000000374e+00 9.389512845920930849e+05
7.862300000000000288e+00 9.395183982336726040e+05
7.891300000000000203e+00 9.390877877429464133e+05
7.920300000000000118e+00 9.380619949299020227e+05
7.949300000000000033e+00 9.371001170995517168e+05
7.978399999999999714e+00 9.366474422961003147e+05
8.007400000000000517e+00 9.368063949667963898e+05
8.036400000000000432e+00 9.375750098161426140e+05
8.065400000000000347e+00 9.388682260352986632e+05
8.094400000000000261e+00 9.406001972637451254e+05
8.123400000000000176e+00 9.426421005460189190e+05
8.152400000000000091e+00 9.448011441913144663e+05
8.181400000000000006e+00 9.469761807333788602e+05
8.210499999999999687e+00 9.491902033179672435e+05
8.239499999999999602e+00 9.516222066175135551e+05
8.268499999999999517e+00 9.544759717302437639e+05
8.297499999999999432e+00 9.576066366649086121e+05
8.326499999999999346e+00 9.606328639693123987e+05
8.355499999999999261e+00 9.634065675267530605e+05
8.384499999999999176e+00 9.662723991845567944e+05
8.413500000000000867e+00 9.696805581538128899e+05
8.442500000000000782e+00 9.736462812596617732e+05
8.471600000000000463e+00 9.779107878816063749e+05
8.500600000000000378e+00 9.825024916194697144e+05
8.529600000000000293e+00 9.878335880711459322e+05
8.558600000000000207e+00 9.941475001529728761e+05
8.587600000000000122e+00 1.001644024802802596e+06
8.616600000000000037e+00 1.011190147025156301e+06
8.645599999999999952e+00 1.024223693856276921e+06
8.674599999999999866e+00 1.041981669431973947e+06
8.703699999999999548e+00 1.064527820166598307e+06
8.732699999999999463e+00 1.090138476440077880e+06
8.761699999999999378e+00 1.115523206797264284e+06
8.790699999999999292e+00 1.136892654700348619e+06
8.819699999999999207e+00 1.151349065080493921e+06
8.848699999999999122e+00 1.157771107267428422e+06
8.877700000000000813e+00 1.157348260679348838e+06
8.906700000000000728e+00 1.152544485644976143e+06
8.935800000000000409e+00 1.145838438917147228e+06
8.964800000000000324e+00 1.138953836684323614e+06
8.993800000000000239e+00 1.132855164746321505e+06
9.022800000000000153e+00 1.127931841322830878e+06
9.051800000000000068e+00 1.124069251305577811e+06
9.080799999999999983e+00 1.120959014219725970e+06
9.109799999999999898e+00 1.118414712802251801e+06
9.138799999999999812e+00 1.116476191389002837e+06
9.167899999999999494e+00 1.115051140719556715e+06
9.196899999999999409e+00 1.113828875845763367e+06
9.225899999999999324e+00 1.112756378303420963e+06
9.254899999999999238e+00 1.112067640529538970e+06
9.283899999999999153e+00 1.112078949734763941e+06
9.312900000000000844e+00 1.112885231917534722e+06
9.341900000000000759e+00 1.114038076255184831e+06
9.370900000000000674e+00 1.114753949105921434e+06
9.400000000000000355e+00 1.114359039436626947e+06
9.429000000000000270e+00 1.112614211261117365e+06
9.458000000000000185e+00 1.109687749801832484e+06
9.487000000000000099e+00 1.105959044197319308e+06
9.516000000000000014e+00 1.101877706730481936e+06
9.544999999999999929e+00 1.097796021137523232e+06
9.573999999999999844e+00 1.094015615247247042e+06
9.602999999999999758e+00 1.090706298803159967e+06
9.631999999999999673e+00 1.087719010298590409e+06
9.661099999999999355e+00 1.084762554808913264e+06
9.690099999999999270e+00 1.081725517965987790e+06
9.719099999999999184e+00 1.078550730947792530e+06
9.748100000000000875e+00 1.075026717133814702e+06
9.777100000000000790e+00 1.070878274807808222e+06
9.806100000000000705e+00 1.066065022855203133e+06
9.835100000000000620e+00 1.060855688974129735e+06
9.864100000000000534e+00 1.055633649047375191e+06
9.893200000000000216e+00 1.050752560866505606e+06
9.922200000000000131e+00 1.046188474787115585e+06
9.951200000000000045e+00 1.041768396396040567e+06
9.980199999999999960e+00 1.037248370144131244e+06
1.000919999999999987e+01 1.032334759268974070e+06
1.003819999999999979e+01 1.026932051875785692e+06
1.006719999999999970e+01 1.021303952142756316e+06
1.009619999999999962e+01 1.015768995156741119e+06
1.012529999999999930e+01 1.010648858272818266e+06
1.015429999999999922e+01 1.005780840321386699e+06
1.018329999999999913e+01 1.000679748850514879e+06
1.021230000000000082e+01 9.952599582703748019e+05
1.024130000000000074e+01 9.899109748171030078e+05
1.027030000000000065e+01 9.851128103021525312e+05
1.029930000000000057e+01 9.808215619454757543e+05
1.032830000000000048e+01 9.768062533230980625e+05
1.035740000000000016e+01 9.728060755384771619e+05
1.038640000000000008e+01 9.684776226524472004e+05
1.041539999999999999e+01 9.637319144723948557e+05
1.044439999999999991e+01 9.585009314441191964e+05
1.047339999999999982e+01 9.526162749287590850e+05
1.050239999999999974e+01 9.458516654996989528e+05
1.053139999999999965e+01 9.383510872058145469e+05
1.056039999999999957e+01 9.303586162178093800e+05
1.058949999999999925e+01 9.220696604945396539e+05
1.061849999999999916e+01 9.135042953521073796e+05
1.064750000000000085e+01 9.048645134285100503e+05
1.067650000000000077e+01 8.965322932525326032e+05
1.070550000000000068e+01 8.887764475101158023e+05
1.073450000000000060e+01 8.815114998767554061e+05
1.076350000000000051e+01 8.745497747485844884e+05
1.079250000000000043e+01 8.677712060205019079e+05
1.082150000000000034e+01 8.608961828525523888e+05
1.085060000000000002e+01 8.537717423709986033e+05
1.087959999999999994e+01 8.464508703456009971e+05
1.090859999999999985e+01 8.392028906434710370e+05
1.093759999999999977e+01 8.322906236150425393e+05
1.096659999999999968e+01 8.259182570906011388e+05
1.099559999999999960e+01 8.200149121203242103e+05
1.102459999999999951e+01 8.144947825527207460e+05
1.105359999999999943e+01 8.093944751687920652e+05
1.108270000000000088e+01 8.048451751641116571e+05
1.111170000000000080e+01 8.008646424495283281e+05
1.114070000000000071e+01 7.975905614943898981e+05
1.116970000000000063e+01 7.950030792122593848e+05
1.119870000000000054e+01 7.928173902865875280e+05
1.122770000000000046e+01 7.906238815707328031e+05
1.125670000000000037e+01 7.881728156683847774e+05
1.128570000000000029e+01 7.856833766508749686e+05
1.131479999999999997e+01 7.833578826403487474e+05
1.134379999999999988e+01 7.812271293528659735e+05
1.137279999999999980e+01 7.792815470274515683e+05
1.140179999999999971e+01 7.774134674342067447e+05
1.143079999999999963e+01 7.755152561416766839e+05
1.145979999999999954e+01 7.736129606573437341e+05
1.148879999999999946e+01 7.719566234703676309e+05
1.151779999999999937e+01 7.707256619167651515e+05
1.154690000000000083e+01 7.698765235146539053e+05
