# energy(eV) alpha
0.000000000000000000e+00 0.000000000000000000e+00
3.150000000000000022e-02 2.942914247225164592e-01
6.289999999999999758e-02 1.116503859798890774e+00
9.439999999999999780e-02 2.733832842577712974e+00
1.257999999999999952e-01 4.700613543645017600e+00
1.572999999999999954e-01 7.346519749486961182e+00
1.887999999999999956e-01 1.058031351875957782e+01
2.202000000000000068e-01 1.460080163517039864e+01
2.516999999999999793e-01 1.880274008571901945e+01
2.832000000000000073e-01 2.379709689316255705e+01
3.145999999999999908e-01 2.936857085034227666e+01
3.461000000000000187e-01 3.585696397200179319e+01
3.775000000000000022e-01 4.227344001045912592e+01
4.089999999999999747e-01 4.998913661587718593e+01
4.405000000000000027e-01 5.834754047129105459e+01
4.718999999999999861e-01 6.645252645454029050e+01
5.033999999999999586e-01 7.603345207000789685e+01
5.348000000000000531e-01 8.623813112743604847e+01
5.663000000000000256e-01 9.656863404660907690e+01
5.977999999999999980e-01 1.080348670811139868e+02
6.291999999999999815e-01 1.201185884733312434e+02
6.606999999999999540e-01 1.328564786385351510e+02
6.921000000000000485e-01 1.462053725237894071e+02
7.236000000000000210e-01 1.602086651797032175e+02
7.550999999999999934e-01 1.741396423962073641e+02
7.864999999999999769e-01 1.900817071109319443e+02
8.179999999999999494e-01 2.059713354754231034e+02
8.495000000000000329e-01 2.224889272629504546e+02
8.809000000000000163e-01 2.404201145283329026e+02
9.123999999999999888e-01 2.599052701095426414e+02
9.437999999999999723e-01 2.774690436922713275e+02
9.752999999999999448e-01 2.974329923398429969e+02
1.006799999999999917e+00 3.180708232075969590e+02
1.038200000000000012e+00 3.393458721507960263e+02
1.069700000000000095e+00 3.623132835018312221e+02
1.101099999999999968e+00 3.849511963029811454e+02
1.132600000000000051e+00 4.093361974104639103e+02
1.164099999999999913e+00 4.344378968127162466e+02
1.195500000000000007e+00 4.613182594663130089e+02
1.227000000000000091e+00 4.878757587521759547e+02
1.258499999999999952e+00 5.139829779509476566e+02
1.289900000000000047e+00 5.442611257130245122e+02
1.321399999999999908e+00 5.729661933237408675e+02
1.352800000000000002e+00 6.048103324366362585e+02
1.384300000000000086e+00 6.362310813078084948e+02
1.415799999999999947e+00 6.684040903157078901e+02
1.447200000000000042e+00 7.039272000927469435e+02
1.478699999999999903e+00 7.389944677204033496e+02
1.510099999999999998e+00 7.747999391626591432e+02
1.541600000000000081e+00 8.128475913545603362e+02
1.573099999999999943e+00 8.531690782571392901e+02
1.604500000000000037e+00 8.913920735371655155e+02
1.635999999999999899e+00 9.319334356101632011e+02
1.667399999999999993e+00 9.762734065401211865e+02
1.698900000000000077e+00 1.020046059715132401e+03
1.730399999999999938e+00 1.066246884840247276e+03
1.761800000000000033e+00 1.113300935795603436e+03
1.793299999999999894e+00 1.162945223296628683e+03
1.824799999999999978e+00 1.211874818335457348e+03
1.856200000000000072e+00 1.264992457717413572e+03
1.887699999999999934e+00 1.319162004176803521e+03
1.919100000000000028e+00 1.375966281280851263e+03
1.950599999999999890e+00 1.432101160777831410e+03
1.982099999999999973e+00 1.492772933950917604e+03
2.013500000000000068e+00 1.556224497675357497e+03
2.044999999999999929e+00 1.619004050825543118e+03
2.076400000000000023e+00 1.684598649481022676e+03
2.107899999999999885e+00 1.751352848217256224e+03
2.139400000000000190e+00 1.822986183074241580e+03
2.170799999999999841e+00 1.895684891683059504e+03
2.202300000000000146e+00 1.973526970255084507e+03
2.233800000000000008e+00 2.050596125142356414e+03
2.265200000000000102e+00 2.132763076533983622e+03
2.296699999999999964e+00 2.218297008077851842e+03
2.328100000000000058e+00 2.302931617888208621e+03
2.359599999999999920e+00 2.395140162887089446e+03
2.391099999999999781e+00 2.488658990466270097e+03
2.422499999999999876e+00 2.589806525515485646e+03
2.454000000000000181e+00 2.690311155115364727e+03
2.485399999999999832e+00 2.796427964439908919e+03
2.516900000000000137e+00 2.908513200683258219e+03
2.548399999999999999e+00 3.022093454355521317e+03
2.579800000000000093e+00 3.141512514969732820e+03
2.611299999999999955e+00 3.267122737389227041e+03
2.642700000000000049e+00 3.398816582417361133e+03
2.674199999999999910e+00 3.534537081896474774e+03
2.705700000000000216e+00 3.679001131510509822e+03
2.737099999999999866e+00 3.827365667543948803e+03
2.768600000000000172e+00 3.982410438940457425e+03
2.800100000000000033e+00 4.148835462228405049e+03
2.831500000000000128e+00 4.319448033657707128e+03
2.862999999999999989e+00 4.501845536965147403e+03
2.894400000000000084e+00 4.693497423508152679e+03
2.925899999999999945e+00 4.897294462554406891e+03
2.957399999999999807e+00 5.110723648332951598e+03
2.988799999999999901e+00 5.336237780955172639e+03
3.020300000000000207e+00 5.581981184455672519e+03
3.051699999999999857e+00 5.840208304380729714e+03
3.083200000000000163e+00 6.116505430746889033e+03
3.114700000000000024e+00 6.418763529303121686e+03
3.146100000000000119e+00 6.739170630562559381e+03
3.177599999999999980e+00 7.091559006309559663e+03
3.209099999999999842e+00 7.478730543608741755e+03
3.240499999999999936e+00 7.903376359370172395e+03
3.271999999999999797e+00 8.387996776480636981e+03
3.303399999999999892e+00 8.932711368646698247e+03
3.334900000000000198e+00 9.563063282009637987e+03
3.366400000000000059e+00 1.030726507647441395e+04
3.397800000000000153e+00 1.120205916579223049e+04
3.429300000000000015e+00 1.228336928066982546e+04
3.460700000000000109e+00 1.357806006870991041e+04
3.492199999999999971e+00 1.510980643171673546e+04
3.523699999999999832e+00 1.687634280824486996e+04
3.555099999999999927e+00 1.884465754904452479e+04
3.586599999999999788e+00 2.097642535808009779e+04
3.617999999999999883e+00 2.324435437785381509e+04
3.649500000000000188e+00 2.564097195642820589e+04
3.681000000000000050e+00 2.809948009316646130e+04
3.712400000000000144e+00 3.054121439048672619e+04
3.743900000000000006e+00 3.297049715616639878e+04
3.775399999999999867e+00 3.540258146516631678e+04
3.806799999999999962e+00 3.782332265700332209e+04
3.838299999999999823e+00 4.013728035056270892e+04
3.869699999999999918e+00 4.222969750147945888e+04
3.901199999999999779e+00 4.403224466417366057e+04
3.932700000000000085e+00 4.555759379987743887e+04
3.964100000000000179e+00 4.690856619563644199e+04
3.995600000000000041e+00 4.833717924270038202e+04
4.027000000000000135e+00 5.008001031745944056e+04
4.058500000000000441e+00 5.233727324519947433e+04
4.089999999999999858e+00 5.521947284047478752e+04
4.121400000000000396e+00 5.879267660222745326e+04
4.152899999999999814e+00 6.312784360397837008e+04
4.184400000000000119e+00 6.836332060534751508e+04
4.215799999999999770e+00 7.462190713736502221e+04
4.247300000000000075e+00 8.200815148307182244e+04
4.278699999999999726e+00 9.060394039252385846e+04
4.310200000000000031e+00 1.004716720224298624e+05
4.341700000000000337e+00 1.116800264792471135e+05
4.373099999999999987e+00 1.244336824044945388e+05
4.404600000000000293e+00 1.390685094450525648e+05
4.435999999999999943e+00 1.556789257190807548e+05
4.467500000000000249e+00 1.740444106971353176e+05
4.498999999999999666e+00 1.936098701017054264e+05
4.530400000000000205e+00 2.137958051086971245e+05
4.561899999999999622e+00 2.342365389463118918e+05
4.593300000000000161e+00 2.546826505963167874e+05
4.624799999999999578e+00 2.748762937219720334e+05
4.656299999999999883e+00 2.945140690501731588e+05
4.687700000000000422e+00 3.131821254291687510e+05
4.719199999999999839e+00 3.304475390099136275e+05
4.750700000000000145e+00 3.462963552837890456e+05
4.782099999999999795e+00 3.611204791278500925e+05
4.813600000000000101e+00 3.752277720693844021e+05
4.844999999999999751e+00 3.887289667200036347e+05
4.876500000000000057e+00 4.018076299542652559e+05
4.908000000000000362e+00 4.143714617124620709e+05
4.939400000000000013e+00 4.260922275116993114e+05
4.970900000000000318e+00 4.365999502217696863e+05
5.002299999999999969e+00 4.456975528990239254e+05
5.033800000000000274e+00 4.535681141606833553e+05
5.065299999999999692e+00 4.606191198147396208e+05
5.096700000000000230e+00 4.671755914834968862e+05
5.128199999999999648e+00 4.734157384657655493e+05
5.159699999999999953e+00 4.792682727287031012e+05
5.191099999999999604e+00 4.844778979428638704e+05
5.222599999999999909e+00 4.889663387840201030e+05
5.253999999999999559e+00 4.931172665097953286e+05
5.285499999999999865e+00 4.977902139076493331e+05
5.317000000000000171e+00 5.039940745677664527e+05
5.348399999999999821e+00 5.126804297374417074e+05
5.379900000000000126e+00 5.251510468365593115e+05
5.411299999999999777e+00 5.433674232541584643e+05
5.442800000000000082e+00 5.696017582293532323e+05
5.474300000000000388e+00 6.049319091212329222e+05
5.505700000000000038e+00 6.466678064890522510e+05
5.537200000000000344e+00 6.864946751627536723e+05
5.568599999999999994e+00 7.138085996047883527e+05
5.600100000000000300e+00 7.230448446192777483e+05
5.631599999999999717e+00 7.167388620504610008e+05
5.663000000000000256e+00 7.019781721344920807e+05
5.694499999999999673e+00 6.852349752238034271e+05
5.725999999999999979e+00 6.703445586300337454e+05
5.757399999999999629e+00 6.588600260268859565e+05
5.788899999999999935e+00 6.508022671813626075e+05
5.820299999999999585e+00 6.454360277221093420e+05
5.851799999999999891e+00 6.420854574913176475e+05
5.883300000000000196e+00 6.404494438662526663e+05
5.914699999999999847e+00 6.403190068537072511e+05
5.946200000000000152e+00 6.410491726903817616e+05
5.977599999999999802e+00 6.416418048932971433e+05
6.009100000000000108e+00 6.415228745671088109e+05
6.040600000000000414e+00 6.408609152806930942e+05
6.072000000000000064e+00 6.403635144877304556e+05
6.103500000000000369e+00 6.409312347620303044e+05
6.134999999999999787e+00 6.431185459198737517e+05
6.166400000000000325e+00 6.469616040015612962e+05
6.197899999999999743e+00 6.520114434262788855e+05
6.229300000000000281e+00 6.576050829782190267e+05
6.260799999999999699e+00 6.630733855825709179e+05
6.292300000000000004e+00 6.679937489051428856e+05
6.323699999999999655e+00 6.722258055506305536e+05
6.355199999999999960e+00 6.756312028619800694e+05
6.386599999999999611e+00 6.780113238594983704e+05
6.418099999999999916e+00 6.795856251232528593e+05
6.449600000000000222e+00 6.809505678498724010e+05
6.480999999999999872e+00 6.825555850618440891e+05
6.512500000000000178e+00 6.846086125178957591e+05
6.543899999999999828e+00 6.869537992071907502e+05
6.575400000000000134e+00 6.892725957846970996e+05
6.606900000000000439e+00 6.913993962790962541e+05
6.638300000000000090e+00 6.935006092669341015e+05
6.669800000000000395e+00 6.958631684943687869e+05
6.701299999999999812e+00 6.985949766705005895e+05
6.732700000000000351e+00 7.018383670000648126e+05
6.764199999999999768e+00 7.058100732533269329e+05
6.795600000000000307e+00 7.106365612709862180e+05
6.827099999999999724e+00 7.164056349776086863e+05
6.858600000000000030e+00 7.229482441305210814e+05
6.889999999999999680e+00 7.297877297327100532e+05
6.921499999999999986e+00 7.364831200796278426e+05
6.952899999999999636e+00 7.426948114045179682e+05
6.984399999999999942e+00 7.483250136717266869e+05
7.015900000000000247e+00 7.532937356990723638e+05
7.047299999999999898e+00 7.575088576462782221e+05
7.078800000000000203e+00 7.609215139009206323e+05
7.110299999999999621e+00 7.634903686088849790e+05
7.141700000000000159e+00 7.653888537290081149e+05
7.173199999999999577e+00 7.670362747726327507e+05
7.204600000000000115e+00 7.688071862508819904e+05
7.236100000000000421e+00 7.709548730229474604e+05
7.267599999999999838e+00 7.736695946224929066e+05
7.299000000000000377e+00 7.770087161203218857e+05
7.330499999999999794e+00 7.808663720604338450e+05
7.361900000000000333e+00 7.848911442390033044e+05
7.393399999999999750e+00 7.887743171207845444e+05
7.424900000000000055e+00 7.922961517481822520e+05
7.456299999999999706e+00 7.955564305024244823e+05
7.487800000000000011e+00 7.985345019017395098e+05
7.519300000000000317e+00 8.008906224803389050e+05
7.550699999999999967e+00 8.024683748208967736e+05
7.582200000000000273e+00 8.033027825551370624e+05
7.613599999999999923e+00 8.033385862855763407e+05
7.645100000000000229e+00 8.027228761160490103e+05
7.676599999999999646e+00 8.018498493673355551e+05
7.708000000000000185e+00 8.010287441166038625e+05
7.739499999999999602e+00 8.001767518070576480e+05
7.770900000000000141e+00 7.989608762318001827e+05
7.802399999999999558e+00 7.975180909932309296e+05
7.833899999999999864e+00 7.962476248545954004e+05
7.865300000000000402e+00 7.954422337559167063e+05
7.896799999999999820e+00 7.951163674684353173e+05
7.928200000000000358e+00 7.950585443828260759e+05
7.959699999999999775e+00 7.949821319068351295e+05
7.991200000000000081e+00 7.948939112377503188e+05
8.022600000000000620e+00 7.950554721123464406e+05
8.054100000000000037e+00 7.956958991238798480e+05
8.085599999999999454e+00 7.968080533549743704e+05
8.117000000000000881e+00 7.980583150595084298e+05
8.148500000000000298e+00 7.991481764689930715e+05
8.179899999999999949e+00 7.999464921332708327e+05
8.211399999999999366e+00 8.006385345059788087e+05
8.242900000000000560e+00 8.014089120643484639e+05
8.274300000000000210e+00 8.023806391602178337e+05
8.305799999999999628e+00 8.036419040340727661e+05
8.337199999999999278e+00 8.051296926889299648e+05
8.368700000000000472e+00 8.065758727358113974e+05
8.400199999999999889e+00 8.076062801816238789e+05
8.431599999999999540e+00 8.079938911349619739e+05
8.463100000000000733e+00 8.079628147418695735e+05
8.494600000000000151e+00 8.080290101608061232e+05
8.525999999999999801e+00 8.089112425971853081e+05
8.557499999999999218e+00 8.114580116185719380e+05
8.588900000000000645e+00 8.167487043984006159e+05
8.620400000000000063e+00 8.264182552068270743e+05
8.651899999999999480e+00 8.424577901200270280e+05
8.683299999999999130e+00 8.662769274819174316e+05
8.714800000000000324e+00 8.957186971108440775e+05
8.746199999999999974e+00 9.225301256653289311e+05
8.777699999999999392e+00 9.365612446704653557e+05
8.809200000000000585e+00 9.350211564997154055e+05
8.840600000000000236e+00 9.234226552619942231e+05
8.872099999999999653e+00 9.086096130050914362e+05
8.903499999999999304e+00 8.944081683312341338e+05
8.935000000000000497e+00 8.821722835474478779e+05
8.966499999999999915e+00 8.721253605626969365e+05
8.997899999999999565e+00 8.640187323592879111e+05
9.029400000000000759e+00 8.573901145457637031e+05
9.060900000000000176e+00 8.518996023215631722e+05
9.092299999999999827e+00 8.474550221790678333e+05
9.123799999999999244e+00 8.439606239966239082e+05
9.155200000000000671e+00 8.413041196984834969e+05
9.186700000000000088e+00 8.395150790639995830e+05
9.218199999999999505e+00 8.385950977399981348e+05
9.249599999999999156e+00 8.383817218807376921e+05
9.281100000000000350e+00 8.385331085474068532e+05
9.312500000000000000e+00 8.385536597400793107e+05
9.343999999999999417e+00 8.380178115348273423e+05
9.375500000000000611e+00 8.369981728903970215e+05
9.406900000000000261e+00 8.358263329891174799e+05
9.438399999999999679e+00 8.347727096392040839e+05
9.469900000000000873e+00 8.339266913097618381e+05
9.501300000000000523e+00 8.331902396782854339e+05
9.532799999999999940e+00 8.324844040314701851e+05
9.564199999999999591e+00 8.317340182992646005e+05
9.595700000000000784e+00 8.309096915232792962e+05
9.627200000000000202e+00 8.299969552715306636e+05
9.658599999999999852e+00 8.292172547223675065e+05
9.690099999999999270e+00 8.286622545427615987e+05
9.721500000000000696e+00 8.280924833801997593e+05
9.753000000000000114e+00 8.272906568868550239e+05
9.784499999999999531e+00 8.260994145580133190e+05
9.815899999999999181e+00 8.244513498839287786e+05
9.847400000000000375e+00 8.224196832404972520e+05
9.878800000000000026e+00 8.201175312690114370e+05
9.910299999999999443e+00 8.177041799978127237e+05
9.941800000000000637e+00 8.152481753320050193e+05
9.973200000000000287e+00 8.128668748023997759e+05
1.000469999999999970e+01 8.108179771650424227e+05
1.003619999999999912e+01 8.092038053847829578e+05
1.006760000000000055e+01 8.078991333538176259e+05
1.009909999999999997e+01 8.064965881622663001e+05
1.013049999999999962e+01 8.047373632221809821e+05
1.016200000000000081e+01 8.026864284241351997e+05
1.019350000000000023e+01 8.004532954289281042e+05
1.022489999999999988e+01 7.981508794110680465e+05
1.025639999999999930e+01 7.957855151458961191e+05
1.028780000000000072e+01 7.931931708981577540e+05
1.031930000000000014e+01 7.902718675308316015e+05
1.035079999999999956e+01 7.869905566224085633e+05
1.038219999999999921e+01 7.833273404484925559e+05
1.041370000000000040e+01 7.792025292591663310e+05
1.044519999999999982e+01 7.746728887048990000e+05
1.047659999999999947e+01 7.697395911415175069e+05
1.050810000000000066e+01 7.647301908835355425e+05
1.053950000000000031e+01 7.600661313991451170e+05
1.057099999999999973e+01 7.560280973339070333e+05
1.060249999999999915e+01 7.523647149737590225e+05
1.063390000000000057e+01 7.489148742010110291e+05
1.066539999999999999e+01 7.457480791162770474e+05
1.069679999999999964e+01 7.428930596810037969e+05
1.072830000000000084e+01 7.402190531424613437e+05
1.075980000000000025e+01 7.374189935914538801e+05
1.079119999999999990e+01 7.344400694038068177e+05
1.082269999999999932e+01 7.313485441584774526e+05
1.085410000000000075e+01 7.280410154754967662e+05
1.088560000000000016e+01 7.243305709729299415e+05
1.091709999999999958e+01 7.203873545694616623e+05
1.094849999999999923e+01 7.165589470643992536e+05
1.098000000000000043e+01 7.129667455549214501e+05
1.101149999999999984e+01 7.095507955757546006e+05
1.104289999999999949e+01 7.063556042612002930e+05
1.107440000000000069e+01 7.032461924625195097e+05
1.110580000000000034e+01 7.000474429568485357e+05
1.113729999999999976e+01 6.967054707034346648e+05
1.116879999999999917e+01 6.933907944507666398e+05
1.120020000000000060e+01 6.904786474638737272e+05
1.123170000000000002e+01 6.882176561028778087e+05
1.126309999999999967e+01 6.865799101600723807e+05
1.129460000000000086e+01 6.854016434103199281e+05
1.132610000000000028e+01 6.843028182495437795e+05
1.135749999999999993e+01 6.831008945183955366e+05
1.138899999999999935e+01 6.818113381408557761e+05
1.142050000000000054e+01 6.805641862230538391e+05
1.145190000000000019e+01 6.794677132500425214e+05
1.148339999999999961e+01 6.784099797342359088e+05
1.151479999999999926e+01 6.772799510831495281e+05
1.154630000000000045e+01 6.761407627287452342e+05
1.157779999999999987e+01 6.748823204558562720e+05
1.160919999999999952e+01 6.733620075884379912e+05
1.164070000000000071e+01 6.715694454380259849e+05
1.167210000000000036e+01 6.696490400735189905e+05
1.170359999999999978e+01 6.677045121188005432e+05
1.173509999999999920e+01 6.659859535622253316e+05
1.176650000000000063e+01 6.649261776290572016e+05
1.179800000000000004e+01 6.647700514431019546e+05
1.182939999999999969e+01 6.654584727679411881e+05
1.186090000000000089e+01 6.666954314794719685e+05
1.189240000000000030e+01 6.681823688549514627e+05
1.192379999999999995e+01 6.697550361074970569e+05
1.195529999999999937e+01 6.713270736624548445e+05
1.198680000000000057e+01 6.726586965498722857e+05
1.201820000000000022e+01 6.734831316932084737e+05
1.204969999999999963e+01 6.736121978047812590e+05
1.208109999999999928e+01 6.731793464447715087e+05
1.211260000000000048e+01 6.723860304585414706e+05
1.214409999999999989e+01 6.715581955572360894e+05
1.217549999999999955e+01 6.709035331005901098e+05
1.220700000000000074e+01 6.705126372105972841e+05
1.223840000000000039e+01 6.702300558183027897e+05
1.226989999999999981e+01 6.700330974525712663e+05
1.230139999999999922e+01 6.699390903923421865e+05
1.233280000000000065e+01 6.700915928827777971e+05
1.236430000000000007e+01 6.705314022759518120e+05
1.239579999999999949e+01 6.712237090008766390e+05
1.242719999999999914e+01 6.719584556856111158e+05
1.245870000000000033e+01 6.726572162725995295e+05
1.249009999999999998e+01 6.732604640113235218e+05
1.252159999999999940e+01 6.737226852331234841e+05
