# energy(eV) alpha
0.000000000000000000e+00 0.000000000000000000e+00
3.230000000000000232e-02 6.559653941655616549e-01
6.469999999999999363e-02 2.573056476444769647e+00
9.700000000000000289e-02 5.826969554455184941e+00
1.292999999999999983e-01 1.028229378402224192e+01
1.617000000000000104e-01 1.613964293598101563e+01
1.940000000000000058e-01 2.329784403054441100e+01
2.263000000000000012e-01 3.157209758849353420e+01
2.586999999999999855e-01 4.155083701093575854e+01
2.909999999999999809e-01 5.262843985939727531e+01
3.232999999999999763e-01 6.528101468824439735e+01
3.557000000000000162e-01 7.900861396329847253e+01
3.880000000000000115e-01 9.434046667812617670e+01
4.203999999999999959e-01 1.114019020606511248e+02
4.526999999999999913e-01 1.294550428558102908e+02
4.849999999999999867e-01 1.492586299757545873e+02
5.173999999999999710e-01 1.709210592887622511e+02
5.496999999999999664e-01 1.935311899135743374e+02
5.819999999999999618e-01 2.175228259679913094e+02
6.143999999999999462e-01 2.444810930721699549e+02
6.467000000000000526e-01 2.723903722066310138e+02
6.790000000000000480e-01 3.017733498246608974e+02
7.114000000000000323e-01 3.338626887263254162e+02
7.437000000000000277e-01 3.668469544405450620e+02
7.760000000000000231e-01 4.019886937135785843e+02
8.084000000000000075e-01 4.400883548563110708e+02
8.407000000000000028e-01 4.783762352603084196e+02
8.729999999999999982e-01 5.211160177722121034e+02
9.053999999999999826e-01 5.648912905905805246e+02
9.376999999999999780e-01 6.118421621243397794e+02
9.699999999999999734e-01 6.605549382345683398e+02
1.002399999999999958e+00 7.119176066877112135e+02
1.034699999999999953e+00 7.667283415647252696e+02
1.067099999999999937e+00 8.234832242417548969e+02
1.099399999999999933e+00 8.829443155318998606e+02
1.131699999999999928e+00 9.471055045458693940e+02
1.164099999999999913e+00 1.014347121929935952e+03
1.196399999999999908e+00 1.084556641245867240e+03
1.228699999999999903e+00 1.158874863974805749e+03
1.261100000000000110e+00 1.237538287187365540e+03
1.293400000000000105e+00 1.319403150495912314e+03
1.325700000000000101e+00 1.407895613867112615e+03
1.358100000000000085e+00 1.498920823055975916e+03
1.390400000000000080e+00 1.596784422015293558e+03
1.422700000000000076e+00 1.699522512122836588e+03
1.455100000000000060e+00 1.808570590807136568e+03
1.487400000000000055e+00 1.926251561532512596e+03
1.519700000000000051e+00 2.046827450483955317e+03
1.552100000000000035e+00 2.177941270003139380e+03
1.584400000000000031e+00 2.318393912018007995e+03
1.616700000000000026e+00 2.465995196699012922e+03
1.649100000000000010e+00 2.626352243753798120e+03
1.681400000000000006e+00 2.795494636023139719e+03
1.713799999999999990e+00 2.978030306309679872e+03
1.746099999999999985e+00 3.175374581579384994e+03
1.778399999999999981e+00 3.388126329808568244e+03
1.810799999999999965e+00 3.618275284810108133e+03
1.843099999999999961e+00 3.868749570874630081e+03
1.875399999999999956e+00 4.144718134885522886e+03
1.907799999999999940e+00 4.445590551009110641e+03
1.940099999999999936e+00 4.780499898013030361e+03
1.972399999999999931e+00 5.152078321897651222e+03
2.004799999999999915e+00 5.572275691588486552e+03
2.037100000000000133e+00 6.049579135855350614e+03
2.069399999999999906e+00 6.602954154748039400e+03
2.101799999999999891e+00 7.252165464943528605e+03
2.134100000000000108e+00 8.029566544707614412e+03
2.166399999999999881e+00 8.984348648583834802e+03
2.198799999999999866e+00 1.018445403183299641e+04
2.231100000000000083e+00 1.169470250696846415e+04
2.263399999999999856e+00 1.349879152317250373e+04
2.295799999999999841e+00 1.543184092350844548e+04
2.328100000000000058e+00 1.738518735936938901e+04
2.360399999999999832e+00 1.957939027567486846e+04
2.392799999999999816e+00 2.218220706790407712e+04
2.425100000000000033e+00 2.529482621375161762e+04
2.457500000000000018e+00 2.935669495213650589e+04
2.489799999999999791e+00 3.463699417095225363e+04
2.522100000000000009e+00 4.039410972075619065e+04
2.554499999999999993e+00 4.537292238689591613e+04
2.586800000000000210e+00 4.936366785366230033e+04
2.619099999999999984e+00 5.305173427447940048e+04
2.651499999999999968e+00 5.707240478792147042e+04
2.683800000000000185e+00 6.202658271760143543e+04
2.716099999999999959e+00 6.831577570850749908e+04
2.748499999999999943e+00 7.546644484988540353e+04
2.780800000000000161e+00 8.251514301601538318e+04
2.813099999999999934e+00 8.808425083328252367e+04
2.845499999999999918e+00 9.065236139336410270e+04
2.877800000000000136e+00 9.111007487254205626e+04
2.910099999999999909e+00 9.233435355371361948e+04
2.942499999999999893e+00 9.653420144474892004e+04
2.974800000000000111e+00 1.047520164578848635e+05
3.007099999999999884e+00 1.170557271436505252e+05
3.039499999999999869e+00 1.315212787044772995e+05
3.071800000000000086e+00 1.449554689112713677e+05
3.104200000000000070e+00 1.559366054198424681e+05
3.136499999999999844e+00 1.651206916939385701e+05
3.168800000000000061e+00 1.733286607883207034e+05
3.201200000000000045e+00 1.806574356909294147e+05
3.233499999999999819e+00 1.872992111680868547e+05
3.265800000000000036e+00 1.938183624833576905e+05
3.298200000000000021e+00 2.011207923001286690e+05
3.330499999999999794e+00 2.097485447892964876e+05
3.362800000000000011e+00 2.192809756609048054e+05
3.395199999999999996e+00 2.274666273582770955e+05
3.427500000000000213e+00 2.312797468894113845e+05
3.459799999999999986e+00 2.314350507405249518e+05
3.492199999999999971e+00 2.311605234932353778e+05
3.524500000000000188e+00 2.320025997101249523e+05
3.556799999999999962e+00 2.341764419807849335e+05
3.589199999999999946e+00 2.367531118196830794e+05
3.621500000000000163e+00 2.387932958988272876e+05
3.653799999999999937e+00 2.422643196132535813e+05
3.686199999999999921e+00 2.500142889798707038e+05
3.718500000000000139e+00 2.619494512348159333e+05
3.750799999999999912e+00 2.763251265515710111e+05
3.783199999999999896e+00 2.923227760839927359e+05
3.815500000000000114e+00 3.094047501632463536e+05
3.847900000000000098e+00 3.252501029787949519e+05
3.880199999999999871e+00 3.370552388092362671e+05
3.912500000000000089e+00 3.442524163885463495e+05
3.944900000000000073e+00 3.475153224847999518e+05
3.977199999999999847e+00 3.497868396652187221e+05
4.009500000000000064e+00 3.547095830645738752e+05
4.041900000000000048e+00 3.621698509216808598e+05
4.074200000000000266e+00 3.689342777452546288e+05
4.106499999999999595e+00 3.736252767335172975e+05
4.138899999999999579e+00 3.769509123563155299e+05
4.171199999999999797e+00 3.799137742472675163e+05
4.203500000000000014e+00 3.839303334591782186e+05
4.235899999999999999e+00 3.900386137322139693e+05
4.268200000000000216e+00 3.975832054456484038e+05
4.300500000000000433e+00 4.062121811320082634e+05
4.332900000000000418e+00 4.163510287591082742e+05
4.365199999999999747e+00 4.275183747278131195e+05
4.397499999999999964e+00 4.385698910478777252e+05
4.429899999999999949e+00 4.490582893361119786e+05
4.462200000000000166e+00 4.591624176509600948e+05
4.494600000000000151e+00 4.690269208700853051e+05
4.526900000000000368e+00 4.777154701958262594e+05
4.559199999999999697e+00 4.842226410293642548e+05
4.591599999999999682e+00 4.887543480084639159e+05
4.623899999999999899e+00 4.926098090412467718e+05
4.656200000000000117e+00 4.969757909290891257e+05
4.688600000000000101e+00 5.022826822809514124e+05
4.720900000000000318e+00 5.077900810371302650e+05
4.753199999999999648e+00 5.119045903826200520e+05
4.785599999999999632e+00 5.129737800564728095e+05
4.817899999999999849e+00 5.104776880452712649e+05
4.850200000000000067e+00 5.055755751742115244e+05
4.882600000000000051e+00 4.997938095046177041e+05
4.914900000000000269e+00 4.941044358766711084e+05
4.947199999999999598e+00 4.888785993915424333e+05
4.979599999999999582e+00 4.842156084609968821e+05
5.011899999999999800e+00 4.804266706419346156e+05
5.044200000000000017e+00 4.783546912580510834e+05
5.076600000000000001e+00 4.785830711864746991e+05
5.108900000000000219e+00 4.804795018868835177e+05
5.141300000000000203e+00 4.827086363383865100e+05
5.173600000000000421e+00 4.840832526354164584e+05
5.205899999999999750e+00 4.843315240921173245e+05
5.238299999999999734e+00 4.839346543647117214e+05
5.270599999999999952e+00 4.828356558446167037e+05
5.302900000000000169e+00 4.804716007899230462e+05
5.335300000000000153e+00 4.771771903920766199e+05
5.367600000000000371e+00 4.743889603488436551e+05
5.399899999999999700e+00 4.731081926910165348e+05
5.432299999999999685e+00 4.728178315366933821e+05
5.464599999999999902e+00 4.718068244723623502e+05
5.496900000000000119e+00 4.684545248678143253e+05
5.529300000000000104e+00 4.624653429756445112e+05
5.561600000000000321e+00 4.549642542281186325e+05
5.593899999999999650e+00 4.469681388761710259e+05
5.626299999999999635e+00 4.383602857280675089e+05
5.658599999999999852e+00 4.289316742754023289e+05
5.690900000000000070e+00 4.188599757938972325e+05
5.723300000000000054e+00 4.086945595280422713e+05
5.755600000000000271e+00 3.994411404805749771e+05
5.787899999999999601e+00 3.919480312925521284e+05
5.820299999999999585e+00 3.861945920205739676e+05
5.852599999999999802e+00 3.815077059155954048e+05
5.884999999999999787e+00 3.772144881993340096e+05
5.917300000000000004e+00 3.728481494682336925e+05
5.949600000000000222e+00 3.681967400622820132e+05
5.982000000000000206e+00 3.632467735182143515e+05
6.014300000000000423e+00 3.580912133823958575e+05
6.046599999999999753e+00 3.530978161868109601e+05
6.078999999999999737e+00 3.484972136306797620e+05
6.111299999999999955e+00 3.441171548161958926e+05
6.143600000000000172e+00 3.398190107599357725e+05
6.176000000000000156e+00 3.360489211997322273e+05
6.208300000000000374e+00 3.333858636997873546e+05
6.240599999999999703e+00 3.319002630109161255e+05
6.272999999999999687e+00 3.312914206727612182e+05
6.305299999999999905e+00 3.310635822904087254e+05
6.337600000000000122e+00 3.308165895102931536e+05
6.370000000000000107e+00 3.305191350877368823e+05
6.402300000000000324e+00 3.306344159563437570e+05
6.434599999999999653e+00 3.318290257226508111e+05
6.466999999999999638e+00 3.344022083484962932e+05
6.499299999999999855e+00 3.382123077463170048e+05
6.531699999999999839e+00 3.427336018170224270e+05
6.564000000000000057e+00 3.473235416623292840e+05
6.596300000000000274e+00 3.517264693516589468e+05
6.628700000000000259e+00 3.559347744332142174e+05
6.660999999999999588e+00 3.597187796553339576e+05
6.693299999999999805e+00 3.629268439650841756e+05
6.725699999999999790e+00 3.657603583394588204e+05
6.758000000000000007e+00 3.683151926548305200e+05
6.790300000000000225e+00 3.701457564925471088e+05
6.822700000000000209e+00 3.708634272714038962e+05
6.855000000000000426e+00 3.706117954450885882e+05
6.887299999999999756e+00 3.697845370102398447e+05
6.919699999999999740e+00 3.687929534630446578e+05
6.951999999999999957e+00 3.677868542577726184e+05
6.984300000000000175e+00 3.665198556519584963e+05
7.016700000000000159e+00 3.647640782679257682e+05
7.049000000000000377e+00 3.624123168324606377e+05
7.081299999999999706e+00 3.595930876461027656e+05
7.113699999999999690e+00 3.567283471623950754e+05
7.145999999999999908e+00 3.545064636469949619e+05
7.178399999999999892e+00 3.536408998281903914e+05
7.210700000000000109e+00 3.545306039785002358e+05
7.243000000000000327e+00 3.572050720187138650e+05
7.275400000000000311e+00 3.611935697890355368e+05
7.307699999999999640e+00 3.655265732567794621e+05
7.339999999999999858e+00 3.696628854917724384e+05
7.372399999999999842e+00 3.741205368495510775e+05
7.404700000000000060e+00 3.795123771800385439e+05
7.437000000000000277e+00 3.857487995914979838e+05
7.469400000000000261e+00 3.919923785373503924e+05
7.501699999999999591e+00 3.975368855020255432e+05
7.533999999999999808e+00 4.022192720632075798e+05
7.566399999999999793e+00 4.066151288935510092e+05
7.598700000000000010e+00 4.118156233334655990e+05
7.631000000000000227e+00 4.183565407591538387e+05
7.663400000000000212e+00 4.257702188326007454e+05
7.695700000000000429e+00 4.333132711475934484e+05
7.727999999999999758e+00 4.406583936055115773e+05
7.760399999999999743e+00 4.482667811766798841e+05
7.792699999999999960e+00 4.571924117350773304e+05
7.825000000000000178e+00 4.681846949346256442e+05
7.857400000000000162e+00 4.808489938761944068e+05
7.889700000000000379e+00 4.942447531814324320e+05
7.922100000000000364e+00 5.077942969755087397e+05
7.954399999999999693e+00 5.208415941832935787e+05
7.986699999999999910e+00 5.328432738232685952e+05
8.019099999999999895e+00 5.437671130224234657e+05
8.051399999999999224e+00 5.537599359422613634e+05
8.083700000000000330e+00 5.628642482714417856e+05
8.116099999999999426e+00 5.712680500401932513e+05
8.148400000000000531e+00 5.791662303647689987e+05
8.180699999999999861e+00 5.865528208827624330e+05
8.213100000000000733e+00 5.935225158388621639e+05
8.245400000000000063e+00 6.004540541885190178e+05
8.277699999999999392e+00 6.076960921935545048e+05
8.310100000000000264e+00 6.154276806249710498e+05
8.342399999999999594e+00 6.234838340446681250e+05
8.374700000000000699e+00 6.310263851705914130e+05
8.407099999999999795e+00 6.369305290317216422e+05
8.439399999999999125e+00 6.408459128908716375e+05
8.471700000000000230e+00 6.431959161520942580e+05
8.504099999999999326e+00 6.448265202101862524e+05
8.536400000000000432e+00 6.465420952073569642e+05
8.568799999999999528e+00 6.486151379824773176e+05
8.601100000000000634e+00 6.509733508558878675e+05
8.633399999999999963e+00 6.536648121699980693e+05
8.665800000000000836e+00 6.564772924897868652e+05
8.698100000000000165e+00 6.592191648132510018e+05
8.730399999999999494e+00 6.624630543818325968e+05
8.762800000000000367e+00 6.670041518752106931e+05
8.795099999999999696e+00 6.726929783621091628e+05
8.827400000000000801e+00 6.785257630009629065e+05
8.859799999999999898e+00 6.836038877371964045e+05
8.892099999999999227e+00 6.876686135109749157e+05
8.924400000000000333e+00 6.910399510507037630e+05
8.956799999999999429e+00 6.944842862196923234e+05
8.989100000000000534e+00 6.985515351647493662e+05
9.021399999999999864e+00 7.032791050383258844e+05
9.053800000000000736e+00 7.083236474709791364e+05
9.086100000000000065e+00 7.134457958568398608e+05
9.118399999999999395e+00 7.184457796834666515e+05
9.150800000000000267e+00 7.231078083480386995e+05
9.183099999999999596e+00 7.274739855650982354e+05
9.215400000000000702e+00 7.319884237997644814e+05
9.247799999999999798e+00 7.367939114256765461e+05
9.280099999999999127e+00 7.418130994496895000e+05
9.312500000000000000e+00 7.470706987432437018e+05
9.344799999999999329e+00 7.527813899565909524e+05
9.377100000000000435e+00 7.590534353935278486e+05
9.409499999999999531e+00 7.660069183747025672e+05
9.441800000000000637e+00 7.736855496319645317e+05
9.474099999999999966e+00 7.821212951827645302e+05
9.506500000000000838e+00 7.908567930206743767e+05
9.538800000000000168e+00 7.988108056129483739e+05
9.571099999999999497e+00 8.052464498875460122e+05
9.603500000000000369e+00 8.098381260600134265e+05
9.635799999999999699e+00 8.123980663552986225e+05
9.668100000000000804e+00 8.132673168417240959e+05
9.700499999999999901e+00 8.133270827551117400e+05
9.732799999999999230e+00 8.133111478989635361e+05
9.765100000000000335e+00 8.138321818775665015e+05
9.797499999999999432e+00 8.149234827023477992e+05
9.829800000000000537e+00 8.160528699872051366e+05
9.862099999999999866e+00 8.168455637514573755e+05
9.894500000000000739e+00 8.177420915918166284e+05
9.926800000000000068e+00 8.193883741360342829e+05
9.959199999999999164e+00 8.222856152291061589e+05
9.991500000000000270e+00 8.264907174158568960e+05
1.002379999999999960e+01 8.315911797649438959e+05
1.005620000000000047e+01 8.374519471837470774e+05
1.008849999999999980e+01 8.444899413779234746e+05
1.012079999999999913e+01 8.525857039405984106e+05
1.015320000000000000e+01 8.610247488235804485e+05
1.018549999999999933e+01 8.694933511079101590e+05
1.021780000000000044e+01 8.785665766350870254e+05
1.025019999999999953e+01 8.884559035247830907e+05
1.028250000000000064e+01 8.988777943169034552e+05
1.031479999999999997e+01 9.099915322597452905e+05
1.034720000000000084e+01 9.225353622468254762e+05
1.037950000000000017e+01 9.377275977659386117e+05
1.041179999999999950e+01 9.559871635330895660e+05
1.044420000000000037e+01 9.760740309283015085e+05
1.047649999999999970e+01 9.960498275132994168e+05
1.050880000000000081e+01 1.014064514715045574e+06
1.054119999999999990e+01 1.028106881873490755e+06
1.057349999999999923e+01 1.036350365773337777e+06
1.060590000000000011e+01 1.039759839042502921e+06
1.063819999999999943e+01 1.041578739435133641e+06
1.067050000000000054e+01 1.045169853719074279e+06
1.070289999999999964e+01 1.052156190499178832e+06
1.073520000000000074e+01 1.061568275925241411e+06
1.076750000000000007e+01 1.070916428391976282e+06
1.079989999999999917e+01 1.078292949351613643e+06
1.083220000000000027e+01 1.082589236473185010e+06
1.086449999999999960e+01 1.083252991986100562e+06
1.089690000000000047e+01 1.080507789402083494e+06
1.092919999999999980e+01 1.075711398712679045e+06
1.096149999999999913e+01 1.070074528721140698e+06
1.099390000000000001e+01 1.063894497883277945e+06
1.102619999999999933e+01 1.057094758360751206e+06
1.105850000000000044e+01 1.049760042717861710e+06
1.109089999999999954e+01 1.042316520301813842e+06
1.112320000000000064e+01 1.035270856492171180e+06
1.115549999999999997e+01 1.029209678437472787e+06
1.118790000000000084e+01 1.024490138391938410e+06
1.122020000000000017e+01 1.021346796657390194e+06
1.125249999999999950e+01 1.019703180688538589e+06
1.128490000000000038e+01 1.018807079030670808e+06
1.131719999999999970e+01 1.018207303578298888e+06
1.134960000000000058e+01 1.018465997284429148e+06
1.138189999999999991e+01 1.019980500147959800e+06
1.141419999999999924e+01 1.022274852179767448e+06
1.144660000000000011e+01 1.024446772216592100e+06
1.147889999999999944e+01 1.025824935953897773e+06
1.151120000000000054e+01 1.026224149683097494e+06
1.154359999999999964e+01 1.025796390517811989e+06
1.157590000000000074e+01 1.024884373539956287e+06
1.160820000000000007e+01 1.024253097094899393e+06
1.164059999999999917e+01 1.025033942568714381e+06
1.167290000000000028e+01 1.027480662169371615e+06
1.170519999999999960e+01 1.030469409369981848e+06
1.173760000000000048e+01 1.032647838872028398e+06
1.176989999999999981e+01 1.033871787115020212e+06
1.180219999999999914e+01 1.035545936456959462e+06
1.183460000000000001e+01 1.038747586069312878e+06
1.186689999999999934e+01 1.042900143457148923e+06
1.189920000000000044e+01 1.046417358189855702e+06
1.193159999999999954e+01 1.048846242963624420e+06
1.196390000000000065e+01 1.051288352544545894e+06
1.199629999999999974e+01 1.055010422416052315e+06
1.202860000000000085e+01 1.060115462651525158e+06
1.206090000000000018e+01 1.066123298103605630e+06
1.209329999999999927e+01 1.072575904339267407e+06
1.212560000000000038e+01 1.078948809498808580e+06
1.215789999999999971e+01 1.084512075118000619e+06
1.219030000000000058e+01 1.089471394758925075e+06
1.222259999999999991e+01 1.094421250256465049e+06
1.225489999999999924e+01 1.099378004695441574e+06
1.228730000000000011e+01 1.104044876682529459e+06
1.231959999999999944e+01 1.108287811297547538e+06
1.235190000000000055e+01 1.112008419106233632e+06
1.238429999999999964e+01 1.114795465969622135e+06
1.241660000000000075e+01 1.116633320569263771e+06
1.244890000000000008e+01 1.117604216249337886e+06
1.248129999999999917e+01 1.116962041953806998e+06
1.251360000000000028e+01 1.113815606116767507e+06
1.254589999999999961e+01 1.108677215322357137e+06
1.257830000000000048e+01 1.103566229795012856e+06
1.261059999999999981e+01 1.100580658028895967e+06
1.264300000000000068e+01 1.100989043217299972e+06
1.267530000000000001e+01 1.105127738540505990e+06
1.270759999999999934e+01 1.112697897168638185e+06
1.274000000000000021e+01 1.122446824803702766e+06
1.277229999999999954e+01 1.132349570562504465e+06
1.280460000000000065e+01 1.141308117818139028e+06
1.283699999999999974e+01 1.149418368733755546e+06
1.286930000000000085e+01 1.157208524390908889e+06
