# energy(eV) alpha
0.000000000000000000e+00 0.000000000000000000e+00
3.570000000000000256e-02 2.714716419934158687e+00
7.130000000000000226e-02 1.084187268240575008e+01
1.069999999999999979e-01 2.461880482475520182e+01
1.426000000000000045e-01 4.363216262198260864e+01
1.782999999999999863e-01 6.843562762688000589e+01
2.139000000000000068e-01 9.916271679928532023e+01
2.495999999999999885e-01 1.355848746275937629e+02
2.852999999999999980e-01 1.782229123575848746e+02
3.209000000000000186e-01 2.271949456114009536e+02
3.565999999999999726e-01 2.828179094548438002e+02
3.921999999999999931e-01 3.451171618082561281e+02
4.279000000000000026e-01 4.153039006063946204e+02
4.635000000000000231e-01 4.926273971181272486e+02
4.991999999999999771e-01 5.784576350945733338e+02
5.349000000000000421e-01 6.719732562249898820e+02
5.705000000000000071e-01 7.754870865858757725e+02
6.061999999999999611e-01 8.898026387178092591e+02
6.418000000000000371e-01 1.013874120508722172e+03
6.774999999999999911e-01 1.151035241298030542e+03
7.131999999999999451e-01 1.300405450475194129e+03
7.488000000000000211e-01 1.463752765913761323e+03
7.844999999999999751e-01 1.643669532865045767e+03
8.201000000000000512e-01 1.841094940625481740e+03
8.558000000000000052e-01 2.059007676072275444e+03
8.913999999999999702e-01 2.299672901547978654e+03
9.271000000000000352e-01 2.567754785865442500e+03
9.627999999999999892e-01 2.865626272393636100e+03
9.983999999999999542e-01 3.200192855346009765e+03
1.034100000000000019e+00 3.577916572988233384e+03
1.069700000000000095e+00 4.009123019411489622e+03
1.105399999999999938e+00 4.505602106488947356e+03
1.141000000000000014e+00 5.087788519514661857e+03
1.176700000000000079e+00 5.780690456855348202e+03
1.212399999999999922e+00 6.625571129848739474e+03
1.247999999999999998e+00 7.682567365029040047e+03
1.283700000000000063e+00 9.053402547545900234e+03
1.319299999999999917e+00 1.089639400790832224e+04
1.354999999999999982e+00 1.345044769552307844e+04
1.390600000000000058e+00 1.694868988525983150e+04
1.426299999999999901e+00 2.114974203007088363e+04
1.461999999999999966e+00 2.452124517270094657e+04
1.497600000000000042e+00 2.562798713134449645e+04
1.533300000000000107e+00 2.585025843421399622e+04
1.568899999999999961e+00 2.727671267152471773e+04
1.604600000000000026e+00 3.096948022337600196e+04
1.640200000000000102e+00 3.766331035751743184e+04
1.675899999999999945e+00 4.805358553113319067e+04
1.711600000000000010e+00 6.118551792868650955e+04
1.747200000000000086e+00 7.115899944268689433e+04
1.782899999999999929e+00 7.141254897650254134e+04
1.818500000000000005e+00 6.598482171236851718e+04
1.854200000000000070e+00 6.270155444269983127e+04
1.889899999999999913e+00 6.489744385346744821e+04
1.925499999999999989e+00 7.368475619878659199e+04
1.961200000000000054e+00 9.011880752147846215e+04
1.996799999999999908e+00 1.136511355385931820e+05
2.032500000000000195e+00 1.370185275040988054e+05
2.068099999999999827e+00 1.476928001107277232e+05
2.103800000000000114e+00 1.439004525902740133e+05
2.139499999999999957e+00 1.384074340687400545e+05
2.175100000000000033e+00 1.428936276298924640e+05
2.210799999999999876e+00 1.604437673346086522e+05
2.246399999999999952e+00 1.874431603892046551e+05
2.282099999999999795e+00 2.176210815407328191e+05
2.317699999999999871e+00 2.437221644654688425e+05
2.353400000000000158e+00 2.543151632192468969e+05
2.389100000000000001e+00 2.502770480320292991e+05
2.424700000000000077e+00 2.491716645187171816e+05
2.460399999999999920e+00 2.633817552116631414e+05
2.495999999999999996e+00 2.861109235024149530e+05
2.531699999999999839e+00 3.014475583853538265e+05
2.567299999999999915e+00 3.065545883644290734e+05
2.603000000000000203e+00 3.063847605111014564e+05
2.638700000000000045e+00 3.041168025305533665e+05
2.674300000000000122e+00 2.996080983678921475e+05
2.709999999999999964e+00 3.023417773152194568e+05
2.745600000000000041e+00 3.241040306038257550e+05
2.781299999999999883e+00 3.619732446598351817e+05
2.816899999999999959e+00 4.009550412639216520e+05
2.852599999999999802e+00 4.278102978896439308e+05
2.888300000000000090e+00 4.388475780516295345e+05
2.923900000000000166e+00 4.432304641700200154e+05
2.959600000000000009e+00 4.548674707258859416e+05
2.995200000000000085e+00 4.751301002695969655e+05
3.030899999999999928e+00 4.963660128946540644e+05
3.066600000000000215e+00 5.086461544970147079e+05
3.102199999999999847e+00 5.103962025964072091e+05
3.137900000000000134e+00 5.097633133455489296e+05
3.173500000000000210e+00 5.113526638499791152e+05
3.209200000000000053e+00 5.155906661045366782e+05
3.244800000000000129e+00 5.240610121712568798e+05
3.280499999999999972e+00 5.338079850020390004e+05
3.316199999999999815e+00 5.394731643242263235e+05
3.351799999999999891e+00 5.351584440022233175e+05
3.387500000000000178e+00 5.170321454214949044e+05
3.423099999999999810e+00 4.939672517912819749e+05
3.458800000000000097e+00 4.798369769668701338e+05
3.494400000000000173e+00 4.778387685620150296e+05
3.530100000000000016e+00 4.829721010406080168e+05
3.565799999999999859e+00 4.907643386527657276e+05
3.601399999999999935e+00 5.009926975542717264e+05
3.637100000000000222e+00 5.178858000889869290e+05
3.672699999999999854e+00 5.364686714739969466e+05
3.708400000000000141e+00 5.456465208820814732e+05
3.744000000000000217e+00 5.425400207885206910e+05
3.779700000000000060e+00 5.339775303556574509e+05
3.815399999999999903e+00 5.260886749956744025e+05
3.850999999999999979e+00 5.216675037378996494e+05
3.886699999999999822e+00 5.189859273173785186e+05
3.922299999999999898e+00 5.144512883481923491e+05
3.958000000000000185e+00 5.065405842298101052e+05
3.993599999999999817e+00 4.975968120600237162e+05
4.029300000000000104e+00 4.866794675861704745e+05
4.065000000000000391e+00 4.713373785043101525e+05
4.100600000000000023e+00 4.495979328095623059e+05
4.136300000000000310e+00 4.234068564214919461e+05
4.171899999999999942e+00 3.980538353647596086e+05
4.207600000000000229e+00 3.803997066483926028e+05
4.243299999999999628e+00 3.773965471184575581e+05
4.278900000000000148e+00 3.881761853182645282e+05
4.314600000000000435e+00 4.041179811070782016e+05
4.350200000000000067e+00 4.193421221798199695e+05
4.385900000000000354e+00 4.362067707101234701e+05
4.421499999999999986e+00 4.566409180226343451e+05
4.457200000000000273e+00 4.746652249947017408e+05
4.492899999999999672e+00 4.822696922068219865e+05
4.528500000000000192e+00 4.755760036214573774e+05
4.564199999999999591e+00 4.577365959957340383e+05
4.599800000000000111e+00 4.391034021557787200e+05
4.635500000000000398e+00 4.263385823039155221e+05
4.671100000000000030e+00 4.150973753616613685e+05
4.706800000000000317e+00 4.007928031902323128e+05
4.742499999999999716e+00 3.854205336551821674e+05
4.778100000000000236e+00 3.737974423486821470e+05
4.813799999999999635e+00 3.684257009347488056e+05
4.849400000000000155e+00 3.647385622008604696e+05
4.885100000000000442e+00 3.547246810844675056e+05
4.920700000000000074e+00 3.380145692657470936e+05
4.956400000000000361e+00 3.218106402028038283e+05
4.992099999999999760e+00 3.117275099882992217e+05
5.027700000000000280e+00 3.055345641259114491e+05
5.063399999999999679e+00 2.975931121172992280e+05
5.099000000000000199e+00 2.857834208021270460e+05
5.134699999999999598e+00 2.732633628430592944e+05
5.170300000000000118e+00 2.642346672071018838e+05
5.206000000000000405e+00 2.605666031590471102e+05
5.241699999999999804e+00 2.609104477536130871e+05
5.277300000000000324e+00 2.623029100137049682e+05
5.312999999999999723e+00 2.629749030391606502e+05
5.348600000000000243e+00 2.644473933662556810e+05
5.384299999999999642e+00 2.690043882592322188e+05
5.419900000000000162e+00 2.778820956415623077e+05
5.455599999999999561e+00 2.924506271248687408e+05
5.491299999999999848e+00 3.129657232993696816e+05
5.526900000000000368e+00 3.374916328125819564e+05
5.562599999999999767e+00 3.631104851214846130e+05
5.598200000000000287e+00 3.887262769508211059e+05
5.633899999999999686e+00 4.144158645104163443e+05
5.669599999999999973e+00 4.388395359093273873e+05
5.705199999999999605e+00 4.598099517225770978e+05
5.740899999999999892e+00 4.792248149865798769e+05
5.776500000000000412e+00 4.999460855950333062e+05
5.812199999999999811e+00 5.209786123929638416e+05
5.847800000000000331e+00 5.410544437818570295e+05
5.883499999999999730e+00 5.616226813988463255e+05
5.919200000000000017e+00 5.855199024035767652e+05
5.954799999999999649e+00 6.148673389017104637e+05
5.990499999999999936e+00 6.481000619948577369e+05
6.026099999999999568e+00 6.823757337985844351e+05
6.061799999999999855e+00 7.156473472670165356e+05
6.097400000000000375e+00 7.463445114955297904e+05
6.133099999999999774e+00 7.746369477083035745e+05
6.168800000000000061e+00 8.007288391664366936e+05
6.204399999999999693e+00 8.258004446902604541e+05
6.240099999999999980e+00 8.492035180445024744e+05
6.275699999999999612e+00 8.654106173641969217e+05
6.311399999999999899e+00 8.710695555847993819e+05
6.347000000000000419e+00 8.710151100441593444e+05
6.382699999999999818e+00 8.721712249035559362e+05
6.418400000000000105e+00 8.748663301016926998e+05
6.453999999999999737e+00 8.730522357297837734e+05
6.489700000000000024e+00 8.617246144347139634e+05
6.525299999999999656e+00 8.439466276904597180e+05
6.560999999999999943e+00 8.251322141782310791e+05
6.596599999999999575e+00 8.060178638904705876e+05
6.632299999999999862e+00 7.867585256200191798e+05
6.668000000000000149e+00 7.702720662260975223e+05
6.703599999999999781e+00 7.604353529936377890e+05
6.739300000000000068e+00 7.583640391615453409e+05
6.774899999999999700e+00 7.603293640428382205e+05
6.810599999999999987e+00 7.621690183572329115e+05
6.846300000000000274e+00 7.623514046358884079e+05
6.881899999999999906e+00 7.606226799090943532e+05
6.917600000000000193e+00 7.588380094401023816e+05
6.953199999999999825e+00 7.588704218078248668e+05
6.988900000000000112e+00 7.612997595733965281e+05
7.024499999999999744e+00 7.658800851787641877e+05
7.060200000000000031e+00 7.703961277277043555e+05
7.095900000000000318e+00 7.721124450744360220e+05
7.131499999999999950e+00 7.708428136128470069e+05
7.167200000000000237e+00 7.674228311331204604e+05
7.202799999999999869e+00 7.619264366874593543e+05
7.238500000000000156e+00 7.558492229969366454e+05
7.274099999999999788e+00 7.499193744993509026e+05
7.309800000000000075e+00 7.467670398302237736e+05
7.345500000000000362e+00 7.487465904658616055e+05
7.381099999999999994e+00 7.533469471243859734e+05
7.416800000000000281e+00 7.573146357630013954e+05
7.452399999999999913e+00 7.576333448558876989e+05
7.488100000000000200e+00 7.520924146127370186e+05
7.523699999999999832e+00 7.425774655203549191e+05
7.559400000000000119e+00 7.334289851264564786e+05
7.595100000000000406e+00 7.274847818209626712e+05
7.630700000000000038e+00 7.242969147530348273e+05
7.666400000000000325e+00 7.221250733213642379e+05
7.701999999999999957e+00 7.227890829996640095e+05
7.737700000000000244e+00 7.290523826611667173e+05
7.773299999999999876e+00 7.379023688287342666e+05
7.809000000000000163e+00 7.418885070822061971e+05
7.844699999999999562e+00 7.391141450872147689e+05
7.880300000000000082e+00 7.367300111197557999e+05
7.916000000000000369e+00 7.417396673247700091e+05
7.951600000000000001e+00 7.554590788079417543e+05
7.987300000000000288e+00 7.727439592039413983e+05
8.022999999999999687e+00 7.881709412896607537e+05
8.058600000000000207e+00 8.028787154892815743e+05
8.094300000000000495e+00 8.236838655275894562e+05
8.129899999999999238e+00 8.569102205581715098e+05
8.165599999999999525e+00 9.023991513629929395e+05
8.201200000000000045e+00 9.495499003246736247e+05
8.236900000000000333e+00 9.870690845826461446e+05
8.272600000000000620e+00 1.012134777534890338e+06
8.308199999999999363e+00 1.025404541577777360e+06
8.343899999999999650e+00 1.029904438279674738e+06
8.379500000000000171e+00 1.032007399969897117e+06
8.415200000000000458e+00 1.038681020417827996e+06
8.450799999999999201e+00 1.050677670598380035e+06
8.486499999999999488e+00 1.064031282090428285e+06
8.522199999999999775e+00 1.074761583187371260e+06
8.557800000000000296e+00 1.079079622836925089e+06
8.593500000000000583e+00 1.075284552779279416e+06
8.629099999999999326e+00 1.067616524880363373e+06
8.664799999999999613e+00 1.062736045315542491e+06
8.700400000000000134e+00 1.062599723840781255e+06
8.736100000000000421e+00 1.066242753778217128e+06
8.771800000000000708e+00 1.072863313739531906e+06
8.807399999999999451e+00 1.077602534690928413e+06
8.843099999999999739e+00 1.075597262932285434e+06
8.878700000000000259e+00 1.069027723191767465e+06
8.914400000000000546e+00 1.065196618511040462e+06
8.949999999999999289e+00 1.070010427418231731e+06
8.985699999999999577e+00 1.078289794331905199e+06
9.021399999999999864e+00 1.076988859665859956e+06
9.057000000000000384e+00 1.062084201399658807e+06
9.092700000000000671e+00 1.040699691641021403e+06
9.128299999999999415e+00 1.019382663669867907e+06
9.163999999999999702e+00 9.981901901517400984e+05
9.199699999999999989e+00 9.758966412732084282e+05
9.235300000000000509e+00 9.520176530693235109e+05
9.271000000000000796e+00 9.266204553791504586e+05
9.306599999999999540e+00 9.038077256425200030e+05
9.342299999999999827e+00 8.892641235191419255e+05
9.377900000000000347e+00 8.832861210743351839e+05
9.413600000000000634e+00 8.815353817129522795e+05
9.449299999999999145e+00 8.804187930637733079e+05
9.484899999999999665e+00 8.815145710145300254e+05
9.520599999999999952e+00 8.865087787080713315e+05
9.556200000000000472e+00 8.912689004854710074e+05
9.591900000000000759e+00 8.910330915538549889e+05
9.627499999999999503e+00 8.867799339700150304e+05
9.663199999999999790e+00 8.845062733587168623e+05
9.698900000000000077e+00 8.901618949483184842e+05
9.734500000000000597e+00 9.067588423363129841e+05
9.770200000000000884e+00 9.331334957239505602e+05
9.805799999999999628e+00 9.609506826669395668e+05
9.841499999999999915e+00 9.786135827230516588e+05
9.877100000000000435e+00 9.815363846501345979e+05
9.912800000000000722e+00 9.726723707800473785e+05
9.948499999999999233e+00 9.562288624269411666e+05
9.984099999999999753e+00 9.374047807118088240e+05
1.001980000000000004e+01 9.205693292695196578e+05
1.005540000000000056e+01 9.083291987028114963e+05
1.009110000000000085e+01 9.016716130461503053e+05
1.012669999999999959e+01 8.986710172290314222e+05
1.016239999999999988e+01 8.985584251132484060e+05
1.019810000000000016e+01 9.015186876426881645e+05
1.023370000000000068e+01 9.079074766405331902e+05
1.026939999999999920e+01 9.169234763473849744e+05
1.030499999999999972e+01 9.256811929571853252e+05
1.034070000000000000e+01 9.285941465675517684e+05
1.037640000000000029e+01 9.207462701614403632e+05
1.041200000000000081e+01 9.025554606156212976e+05
1.044769999999999932e+01 8.772975299877397483e+05
1.048329999999999984e+01 8.493119598222692730e+05
1.051900000000000013e+01 8.208760398917238927e+05
1.055460000000000065e+01 7.926592153209896060e+05
1.059029999999999916e+01 7.690041131266162265e+05
1.062599999999999945e+01 7.545534130860493751e+05
1.066159999999999997e+01 7.494384182357096579e+05
1.069730000000000025e+01 7.488972986105281161e+05
1.073290000000000077e+01 7.490200663360925391e+05
1.076859999999999928e+01 7.494642501299200812e+05
1.080419999999999980e+01 7.538774524504936999e+05
1.083990000000000009e+01 7.662917710248881485e+05
1.087560000000000038e+01 7.854905076444424922e+05
1.091119999999999912e+01 8.078003029172967654e+05
1.094689999999999941e+01 8.315336021570985904e+05
1.098249999999999993e+01 8.554892551234887214e+05
1.101820000000000022e+01 8.777287304119969485e+05
1.105380000000000074e+01 8.982044206481707515e+05
1.108949999999999925e+01 9.194960448341169395e+05
1.112519999999999953e+01 9.430238156317188405e+05
1.116080000000000005e+01 9.681392251069049817e+05
1.119650000000000034e+01 9.945815468623781344e+05
1.123210000000000086e+01 1.019398195487214834e+06
1.126779999999999937e+01 1.038082082868565805e+06
1.130339999999999989e+01 1.051065709121339722e+06
1.133910000000000018e+01 1.059274308006264968e+06
1.137480000000000047e+01 1.062627919579592766e+06
1.141039999999999921e+01 1.061630389359458815e+06
1.144609999999999950e+01 1.055016245782011887e+06
1.148170000000000002e+01 1.045053827663320350e+06
1.151740000000000030e+01 1.036166610109013272e+06
1.155310000000000059e+01 1.028643506959536346e+06
1.158869999999999933e+01 1.022283123023057589e+06
1.162439999999999962e+01 1.016938756504968391e+06
1.166000000000000014e+01 1.011401890659383847e+06
1.169570000000000043e+01 1.006525085092421854e+06
1.173129999999999917e+01 1.003171555197634967e+06
1.176699999999999946e+01 1.000302721696106833e+06
1.180269999999999975e+01 9.953429805095905904e+05
1.183830000000000027e+01 9.872195135536507005e+05
1.187400000000000055e+01 9.772725049563366920e+05
1.190959999999999930e+01 9.694673452266082168e+05
1.194529999999999959e+01 9.653408284806177253e+05
1.198090000000000011e+01 9.598569162356870947e+05
1.201660000000000039e+01 9.506496385006216587e+05
1.205230000000000068e+01 9.424482724430877715e+05
1.208789999999999942e+01 9.384429502140587429e+05
1.212359999999999971e+01 9.355841979511838872e+05
1.215920000000000023e+01 9.296423573151117889e+05
1.219490000000000052e+01 9.196676218692247057e+05
1.223049999999999926e+01 9.050963165376272518e+05
1.226619999999999955e+01 8.848188500280214939e+05
1.230189999999999984e+01 8.616684203519063303e+05
1.233750000000000036e+01 8.399094497978136642e+05
1.237320000000000064e+01 8.221506227682936005e+05
1.240879999999999939e+01 8.110451367742033908e+05
1.244449999999999967e+01 8.081840578191842651e+05
1.248010000000000019e+01 8.106804071992523968e+05
1.251580000000000048e+01 8.111953958390073385e+05
1.255150000000000077e+01 8.049570229095658287e+05
1.258709999999999951e+01 7.955115332879261114e+05
1.262279999999999980e+01 7.873754122225953033e+05
1.265840000000000032e+01 7.797541207020606380e+05
1.269410000000000061e+01 7.718417639154634671e+05
1.272979999999999912e+01 7.656640812903760234e+05
1.276539999999999964e+01 7.629227421108442359e+05
1.280109999999999992e+01 7.622188520986572839e+05
1.283670000000000044e+01 7.608676907523201080e+05
1.287240000000000073e+01 7.581411601865857374e+05
1.290799999999999947e+01 7.565003710022029700e+05
1.294369999999999976e+01 7.591377185423104092e+05
1.297940000000000005e+01 7.676985475596354809e+05
1.301500000000000057e+01 7.825998386168598663e+05
1.305070000000000086e+01 8.039696483843184542e+05
1.308629999999999960e+01 8.261138612481533783e+05
1.312199999999999989e+01 8.379299526713411324e+05
1.315760000000000041e+01 8.329839495342966402e+05
1.319330000000000069e+01 8.144353488413944142e+05
1.322899999999999920e+01 7.901863445359499892e+05
1.326459999999999972e+01 7.693982303474678192e+05
1.330030000000000001e+01 7.591673187800624873e+05
1.333590000000000053e+01 7.595728503731783712e+05
1.337160000000000082e+01 7.646011180789473001e+05
1.340719999999999956e+01 7.669608773325588554e+05
1.344289999999999985e+01 7.643020491199289681e+05
1.347860000000000014e+01 7.575330821384359151e+05
1.351420000000000066e+01 7.508487970102110412e+05
1.354989999999999917e+01 7.515567143342265626e+05
1.358549999999999969e+01 7.638536386144346325e+05
1.362119999999999997e+01 7.846487251990349032e+05
1.365680000000000049e+01 8.067658905832980527e+05
1.369250000000000078e+01 8.240644624215156073e+05
1.372819999999999929e+01 8.320085123192220926e+05
1.376379999999999981e+01 8.290829578300879803e+05
1.379950000000000010e+01 8.180871996458312497e+05
1.383510000000000062e+01 8.030797604204717791e+05
1.387079999999999913e+01 7.872476249496210366e+05
1.390649999999999942e+01 7.746963793250791496e+05
1.394209999999999994e+01 7.675356943179157097e+05
1.397780000000000022e+01 7.645561640678434633e+05
1.401340000000000074e+01 7.633285534444848308e+05
1.404909999999999926e+01 7.609575078469975851e+05
1.408469999999999978e+01 7.572134018701037858e+05
1.412040000000000006e+01 7.526924608488068916e+05
1.415610000000000035e+01 7.475490263650047127e+05
1.419170000000000087e+01 7.432724943704678444e+05
