# energy(eV) alpha
0.000000000000000000e+00 0.000000000000000000e+00
3.529999999999999805e-02 8.295831481158046916e-01
7.059999999999999609e-02 3.258888874446896455e+00
1.058999999999999941e-01 7.376210851293327764e+00
1.411000000000000032e-01 1.325989199604900293e+01
1.764000000000000012e-01 2.071776863766272569e+01
2.116999999999999993e-01 2.982978288377925224e+01
2.469999999999999973e-01 4.059371229420386129e+01
2.822999999999999954e-01 5.324335076412545931e+01
3.175999999999999934e-01 6.759868662080840807e+01
3.528000000000000025e-01 8.363183789659021272e+01
3.881000000000000005e-01 1.017082007528359213e+02
4.233999999999999986e-01 1.211831564239915195e+02
4.586999999999999966e-01 1.431135768890232782e+02
4.939999999999999947e-01 1.664302142303453422e+02
5.292999999999999927e-01 1.919248760545851269e+02
5.645000000000000018e-01 2.191669667754732131e+02
5.997999999999999998e-01 2.487276468392682887e+02
6.350999999999999979e-01 2.806465299545369589e+02
6.703999999999999959e-01 3.144457094849911982e+02
7.056999999999999940e-01 3.501149492342873941e+02
7.409999999999999920e-01 3.888771002640120855e+02
7.762000000000000011e-01 4.295473856474687295e+02
8.114999999999999991e-01 4.735730360136859076e+02
8.467999999999999972e-01 5.189511031617199706e+02
8.820999999999999952e-01 5.677750121312326428e+02
9.173999999999999932e-01 6.194400317924336150e+02
9.526999999999999913e-01 6.740157715636544253e+02
9.879000000000000004e-01 7.314936566809317355e+02
1.023200000000000109e+00 7.920911324460116703e+02
1.058499999999999996e+00 8.557938486964587810e+02
1.093800000000000106e+00 9.235677666033388959e+02
1.129099999999999993e+00 9.955504769036834887e+02
1.164400000000000102e+00 1.070933226011343322e+03
1.199600000000000000e+00 1.150659775409672420e+03
1.234900000000000109e+00 1.234032461264077483e+03
1.270199999999999996e+00 1.323088026421021141e+03
1.305500000000000105e+00 1.415907178371422788e+03
1.340799999999999992e+00 1.516889796389867570e+03
1.376100000000000101e+00 1.621921089038886294e+03
1.411299999999999999e+00 1.732065186572571747e+03
1.446600000000000108e+00 1.848839424526754783e+03
1.481899999999999995e+00 1.973494214825134577e+03
1.517200000000000104e+00 2.105059896323572957e+03
1.552499999999999991e+00 2.244939832744296382e+03
1.587800000000000100e+00 2.393376182062341741e+03
1.623099999999999987e+00 2.550585340845729661e+03
1.658300000000000107e+00 2.719259771589768206e+03
1.693599999999999994e+00 2.900050966113263257e+03
1.728900000000000103e+00 3.091767638344108491e+03
1.764199999999999990e+00 3.296028129592076311e+03
1.799500000000000099e+00 3.520204983080313013e+03
1.834799999999999986e+00 3.756252535066146265e+03
1.870000000000000107e+00 4.011456685596359875e+03
1.905299999999999994e+00 4.288215161851637276e+03
1.940600000000000103e+00 4.588279445369688801e+03
1.975899999999999990e+00 4.915234948736184379e+03
2.011200000000000099e+00 5.271206315155533957e+03
2.046499999999999986e+00 5.663030026342809833e+03
2.081700000000000106e+00 6.094360159084892075e+03
2.116999999999999993e+00 6.572873959620855203e+03
2.152299999999999880e+00 7.108930744472518199e+03
2.187600000000000211e+00 7.711653889933723804e+03
2.222900000000000098e+00 8.397098381552114006e+03
2.258199999999999985e+00 9.183123714082707011e+03
2.293400000000000105e+00 1.009942677769515831e+04
2.328699999999999992e+00 1.118418823705770046e+04
2.363999999999999879e+00 1.249226130560936326e+04
2.399300000000000210e+00 1.410582105577086440e+04
2.434600000000000097e+00 1.612243137486808337e+04
2.469899999999999984e+00 1.866090950369148413e+04
2.505100000000000104e+00 2.185763333869461349e+04
2.540399999999999991e+00 2.582560409150483974e+04
2.575699999999999878e+00 3.072575982065259450e+04
2.611000000000000210e+00 3.675726885693383520e+04
2.646300000000000097e+00 4.407837145878374577e+04
2.681599999999999984e+00 5.302714723515398509e+04
2.716800000000000104e+00 6.370738861379308219e+04
2.752099999999999991e+00 7.506674451024833252e+04
2.787399999999999878e+00 8.528820119109164807e+04
2.822700000000000209e+00 9.342325250861840323e+04
2.858000000000000096e+00 9.950767812430112099e+04
2.893299999999999983e+00 1.040790917153773480e+05
2.928500000000000103e+00 1.079468407943324710e+05
2.963799999999999990e+00 1.116256340807442757e+05
2.999099999999999877e+00 1.159642762156061799e+05
3.034400000000000208e+00 1.226478484627659927e+05
3.069700000000000095e+00 1.334936908723752422e+05
3.104999999999999982e+00 1.487187472295080370e+05
3.140299999999999869e+00 1.666930791045958758e+05
3.175499999999999989e+00 1.854751512555784138e+05
3.210799999999999876e+00 2.039656761541081651e+05
3.246100000000000207e+00 2.214763817301989184e+05
3.281400000000000095e+00 2.375809163281178335e+05
3.316699999999999982e+00 2.518231075854581431e+05
3.351999999999999869e+00 2.635168703297521570e+05
3.387199999999999989e+00 2.723947228573189932e+05
3.422499999999999876e+00 2.786441078176104929e+05
3.457800000000000207e+00 2.824937441004470456e+05
3.493100000000000094e+00 2.847431276602659491e+05
3.528399999999999981e+00 2.868179102384935250e+05
3.563699999999999868e+00 2.899406583955469541e+05
3.598899999999999988e+00 2.948783159841434681e+05
3.634199999999999875e+00 3.026532237894650898e+05
3.669500000000000206e+00 3.139144335906884517e+05
3.704800000000000093e+00 3.279383500029999996e+05
3.740099999999999980e+00 3.427849844959452166e+05
3.775399999999999867e+00 3.560532108939272002e+05
3.810599999999999987e+00 3.663177129237161716e+05
3.845899999999999874e+00 3.735054243714858312e+05
3.881200000000000205e+00 3.784334552235557931e+05
3.916500000000000092e+00 3.824074376380686881e+05
3.951799999999999979e+00 3.860779769516410888e+05
3.987099999999999866e+00 3.893752068898674916e+05
4.022300000000000431e+00 3.915274229294763063e+05
4.057599999999999874e+00 3.914107767195466440e+05
4.092900000000000205e+00 3.887584108352207695e+05
4.128199999999999648e+00 3.849377537853586837e+05
4.163499999999999979e+00 3.815129083376158960e+05
4.198800000000000310e+00 3.789215632442762144e+05
4.233999999999999986e+00 3.766432082239784650e+05
4.269300000000000317e+00 3.745239654131813440e+05
4.304599999999999760e+00 3.729729591726127546e+05
4.339900000000000091e+00 3.723177768722033943e+05
4.375200000000000422e+00 3.723619240696706693e+05
4.410499999999999865e+00 3.723756957673201105e+05
4.445800000000000196e+00 3.719898044359372579e+05
4.480999999999999872e+00 3.716086357824028819e+05
4.516300000000000203e+00 3.721133169486451661e+05
4.551599999999999646e+00 3.742923869318557554e+05
4.586899999999999977e+00 3.780151628285884508e+05
4.622200000000000308e+00 3.821251258110924391e+05
4.657499999999999751e+00 3.857401001759564388e+05
4.692700000000000315e+00 3.896465626125868293e+05
4.727999999999999758e+00 3.952927730751325726e+05
4.763300000000000090e+00 4.026012960439434974e+05
4.798600000000000421e+00 4.097783851417087717e+05
4.833899999999999864e+00 4.158074245635724510e+05
4.869200000000000195e+00 4.216967621845880058e+05
4.904399999999999871e+00 4.280331902009571786e+05
4.939700000000000202e+00 4.341061339535355801e+05
4.974999999999999645e+00 4.389275408149576979e+05
5.010299999999999976e+00 4.421395992812549230e+05
5.045600000000000307e+00 4.441676320467484184e+05
5.080899999999999750e+00 4.462481329483238515e+05
5.116100000000000314e+00 4.494757364345390233e+05
5.151399999999999757e+00 4.548727671347773867e+05
5.186700000000000088e+00 4.632082566856204649e+05
5.222000000000000419e+00 4.742184694293346256e+05
5.257299999999999862e+00 4.868399437054616865e+05
5.292600000000000193e+00 5.001152490991186351e+05
5.327799999999999869e+00 5.128747099562435178e+05
5.363100000000000200e+00 5.237961860763785080e+05
5.398399999999999643e+00 5.318886497772085713e+05
5.433699999999999974e+00 5.369075732677704655e+05
5.469000000000000306e+00 5.391604143363267649e+05
5.504299999999999748e+00 5.399021469665893819e+05
5.539500000000000313e+00 5.416189644944369793e+05
5.574799999999999756e+00 5.456880438242957462e+05
5.610100000000000087e+00 5.514404001094966661e+05
5.645400000000000418e+00 5.571062231876476435e+05
5.680699999999999861e+00 5.608434631579897832e+05
5.716000000000000192e+00 5.625336287945784861e+05
5.751199999999999868e+00 5.632732728819424519e+05
5.786500000000000199e+00 5.635763331318326527e+05
5.821799999999999642e+00 5.630854042477768380e+05
5.857099999999999973e+00 5.616671475282579195e+05
5.892400000000000304e+00 5.599728168673338369e+05
5.927699999999999747e+00 5.589751554491387215e+05
5.963000000000000078e+00 5.592197437468341086e+05
5.998199999999999754e+00 5.610184961785529740e+05
6.033500000000000085e+00 5.645460715385361109e+05
6.068800000000000416e+00 5.689786656401628861e+05
6.104099999999999859e+00 5.736507505376311019e+05
6.139400000000000190e+00 5.792472636691367952e+05
6.174699999999999633e+00 5.862611746330467286e+05
6.209900000000000198e+00 5.943143345022702124e+05
6.245199999999999640e+00 6.040942244026211556e+05
6.280499999999999972e+00 6.169934243776161456e+05
6.315800000000000303e+00 6.323897876501728315e+05
6.351099999999999746e+00 6.481484812347930856e+05
6.386400000000000077e+00 6.633598152341955574e+05
6.421599999999999753e+00 6.782837954688008176e+05
6.456900000000000084e+00 6.924482616587892408e+05
6.492200000000000415e+00 7.046378938723008614e+05
6.527499999999999858e+00 7.141848422834380763e+05
6.562800000000000189e+00 7.207242114976056619e+05
6.598099999999999632e+00 7.245907430707802996e+05
6.633300000000000196e+00 7.263647096809431678e+05
6.668599999999999639e+00 7.266376629242014606e+05
6.703899999999999970e+00 7.263117442743249703e+05
6.739200000000000301e+00 7.265578716904941248e+05
6.774499999999999744e+00 7.280470889036483131e+05
6.809800000000000075e+00 7.306937370290672407e+05
6.844999999999999751e+00 7.342836064795033308e+05
6.880300000000000082e+00 7.392619676711048232e+05
6.915600000000000414e+00 7.460935341312178643e+05
6.950899999999999856e+00 7.541733129992897157e+05
6.986200000000000188e+00 7.624682203410716029e+05
7.021499999999999631e+00 7.703170267704747384e+05
7.056700000000000195e+00 7.775861022259549936e+05
7.091999999999999638e+00 7.842182228334825486e+05
7.127299999999999969e+00 7.904977572345694061e+05
7.162600000000000300e+00 7.972304448812855408e+05
7.197899999999999743e+00 8.046216357186404057e+05
7.233200000000000074e+00 8.120061301450972678e+05
7.268399999999999750e+00 8.190363001160448184e+05
7.303700000000000081e+00 8.259049510013050167e+05
7.339000000000000412e+00 8.327081367703072028e+05
7.374299999999999855e+00 8.395001387403566623e+05
7.409600000000000186e+00 8.463845239704668056e+05
7.444899999999999629e+00 8.533447924530802993e+05
7.480199999999999960e+00 8.596779595208660467e+05
7.515399999999999636e+00 8.643792228550305590e+05
7.550699999999999967e+00 8.674281685307931621e+05
7.586000000000000298e+00 8.696112310744313290e+05
7.621299999999999741e+00 8.718719818935914664e+05
7.656600000000000072e+00 8.749241930711143650e+05
7.691900000000000404e+00 8.784316724539899733e+05
7.727100000000000080e+00 8.813602053186646663e+05
7.762400000000000411e+00 8.829942828324937727e+05
7.797699999999999854e+00 8.838889503195387078e+05
7.833000000000000185e+00 8.858209806207488291e+05
7.868299999999999628e+00 8.905866532768090256e+05
7.903599999999999959e+00 8.986758372295832960e+05
7.938799999999999635e+00 9.092185875254505081e+05
7.974099999999999966e+00 9.208691660588160157e+05
8.009399999999999409e+00 9.325927542129145004e+05
8.044700000000000628e+00 9.437142342522330582e+05
8.080000000000000071e+00 9.539666309018756729e+05
8.115299999999999514e+00 9.634534306154511869e+05
8.150499999999999190e+00 9.721982652710364200e+05
8.185800000000000409e+00 9.804394904386081034e+05
8.221099999999999852e+00 9.883764082019890193e+05
8.256399999999999295e+00 9.957764385808915831e+05
8.291700000000000514e+00 1.002247179384982795e+06
8.326999999999999957e+00 1.007453633738489472e+06
8.362199999999999633e+00 1.011696255322947865e+06
8.397500000000000853e+00 1.015358565630969941e+06
8.432800000000000296e+00 1.018320998698249692e+06
8.468099999999999739e+00 1.020561637136545847e+06
8.503399999999999181e+00 1.022418827967345482e+06
8.538700000000000401e+00 1.024279315508387401e+06
8.573900000000000077e+00 1.026168605413399986e+06
8.609199999999999520e+00 1.028128549640039797e+06
8.644500000000000739e+00 1.030161732836008072e+06
8.679800000000000182e+00 1.032070479006705573e+06
8.715099999999999625e+00 1.033738031161834602e+06
8.750400000000000844e+00 1.035018451645738794e+06
8.785600000000000520e+00 1.035574077068659710e+06
8.820899999999999963e+00 1.035319706685543410e+06
8.856199999999999406e+00 1.034750262966813287e+06
8.891500000000000625e+00 1.034385328567109536e+06
8.926800000000000068e+00 1.034351617322891369e+06
8.962099999999999511e+00 1.034128784766719677e+06
8.997400000000000730e+00 1.032919853387292125e+06
9.032600000000000406e+00 1.030816171767378924e+06
9.067899999999999849e+00 1.028504109849730972e+06
9.103199999999999292e+00 1.026043789434800390e+06
9.138500000000000512e+00 1.022867767935184296e+06
9.173799999999999955e+00 1.018981765955658164e+06
9.209099999999999397e+00 1.014851958245016402e+06
9.244300000000000850e+00 1.010793874183581676e+06
9.279600000000000293e+00 1.007075428402329329e+06
9.314899999999999736e+00 1.004074247937710723e+06
9.350199999999999179e+00 1.002192068380656769e+06
9.385500000000000398e+00 1.001405455824497389e+06
9.420799999999999841e+00 1.001414426846282207e+06
9.455999999999999517e+00 1.001761052445227164e+06
9.491300000000000736e+00 1.002316285614024382e+06
9.526600000000000179e+00 1.003133446287186001e+06
9.561899999999999622e+00 1.004152542733338545e+06
9.597200000000000841e+00 1.005276696133826161e+06
9.632500000000000284e+00 1.006723796260118135e+06
9.667699999999999960e+00 1.008896384935359238e+06
9.702999999999999403e+00 1.011205116833717679e+06
9.738300000000000622e+00 1.012590093722005491e+06
9.773600000000000065e+00 1.012427984423286165e+06
9.808899999999999508e+00 1.010995284725072561e+06
9.844200000000000728e+00 1.009147403651112807e+06
9.879400000000000404e+00 1.007540036852233112e+06
9.914699999999999847e+00 1.006291198244058527e+06
9.949999999999999289e+00 1.005476420070673572e+06
9.985300000000000509e+00 1.005443825197894708e+06
1.002059999999999995e+01 1.006250537755789119e+06
1.005589999999999939e+01 1.007465358995204093e+06
1.009110000000000085e+01 1.008038891210930189e+06
1.012640000000000029e+01 1.007391523786588456e+06
1.016169999999999973e+01 1.005970993613686063e+06
1.019699999999999918e+01 1.004540407011368312e+06
1.023230000000000040e+01 1.003223090854729409e+06
1.026759999999999984e+01 1.001843689905803651e+06
1.030279999999999951e+01 1.000436384800123051e+06
1.033810000000000073e+01 9.991537764638169901e+05
1.037340000000000018e+01 9.977015603329451988e+05
1.040869999999999962e+01 9.957370669204482110e+05
1.044400000000000084e+01 9.933316636639115168e+05
1.047930000000000028e+01 9.906289884731699713e+05
1.051459999999999972e+01 9.877076398899394553e+05
1.054979999999999940e+01 9.847425114136281190e+05
1.058510000000000062e+01 9.823593770014005713e+05
1.062040000000000006e+01 9.808687540916621219e+05
1.065569999999999951e+01 9.798627202568125213e+05
1.069100000000000072e+01 9.791293796841006260e+05
1.072630000000000017e+01 9.785636407725529280e+05
1.076149999999999984e+01 9.780987071095828433e+05
1.079679999999999929e+01 9.771185098562148632e+05
1.083210000000000051e+01 9.748265241916840896e+05
1.086739999999999995e+01 9.710373210547568742e+05
1.090269999999999939e+01 9.658781853428906761e+05
1.093800000000000061e+01 9.594079129840165842e+05
1.097320000000000029e+01 9.520277706521856599e+05
1.100849999999999973e+01 9.446215139501313679e+05
1.104379999999999917e+01 9.374028099537135568e+05
1.107910000000000039e+01 9.301320515846788185e+05
1.111439999999999984e+01 9.229607690923995106e+05
1.114969999999999928e+01 9.164630504962692503e+05
1.118490000000000073e+01 9.109789654789346969e+05
1.122020000000000017e+01 9.064272194943559589e+05
1.125549999999999962e+01 9.022093444392598467e+05
1.129080000000000084e+01 8.980856703833815409e+05
1.132610000000000028e+01 8.941646674904417014e+05
1.136139999999999972e+01 8.906803988939690171e+05
1.139659999999999940e+01 8.871721252645372879e+05
1.143190000000000062e+01 8.829201078955726698e+05
1.146720000000000006e+01 8.777213669796182076e+05
1.150249999999999950e+01 8.717700161465042038e+05
1.153780000000000072e+01 8.652863604613840580e+05
1.157310000000000016e+01 8.584846612681589322e+05
1.160829999999999984e+01 8.514543486158271553e+05
1.164359999999999928e+01 8.442841754916335922e+05
1.167890000000000050e+01 8.369281713999704225e+05
1.171419999999999995e+01 8.292959638400785625e+05
1.174949999999999939e+01 8.215170718039798085e+05
1.178480000000000061e+01 8.138080233670251910e+05
1.182000000000000028e+01 8.063747793772851583e+05
1.185529999999999973e+01 7.990068585448620142e+05
1.189059999999999917e+01 7.914440049929640954e+05
1.192590000000000039e+01 7.838454993975847028e+05
1.196119999999999983e+01 7.765362269288890529e+05
1.199649999999999928e+01 7.697684293956320034e+05
1.203180000000000049e+01 7.634424980166768655e+05
1.206700000000000017e+01 7.571117208268486429e+05
1.210229999999999961e+01 7.503923448830690468e+05
1.213760000000000083e+01 7.437594033759038430e+05
1.217290000000000028e+01 7.379295812347814208e+05
1.220819999999999972e+01 7.328916857223797124e+05
1.224349999999999916e+01 7.282502406267214101e+05
1.227870000000000061e+01 7.237517597030770266e+05
1.231400000000000006e+01 7.191419440617633518e+05
1.234929999999999950e+01 7.143080386626041727e+05
1.238460000000000072e+01 7.095167038807988865e+05
1.241990000000000016e+01 7.050091957410755567e+05
1.245519999999999960e+01 7.008179915224731667e+05
1.249039999999999928e+01 6.973419890199407237e+05
1.252570000000000050e+01 6.943818578958914150e+05
1.256099999999999994e+01 6.916723073539556935e+05
1.259629999999999939e+01 6.897612644278627122e+05
1.263160000000000061e+01 6.896484989313458791e+05
1.266690000000000005e+01 6.914517719695266569e+05
1.270209999999999972e+01 6.940052726711824071e+05
1.273739999999999917e+01 6.958820246767699718e+05
1.277270000000000039e+01 6.963922644246276468e+05
1.280799999999999983e+01 6.958491700699528446e+05
1.284329999999999927e+01 6.947114217922728276e+05
1.287860000000000049e+01 6.934058760993768228e+05
1.291380000000000017e+01 6.930943861234724754e+05
1.294909999999999961e+01 6.954328687870204449e+05
1.298440000000000083e+01 7.013595955262335483e+05
1.301970000000000027e+01 7.106497035612342879e+05
1.305499999999999972e+01 7.224231850685968529e+05
1.309029999999999916e+01 7.352226361345686018e+05
1.312550000000000061e+01 7.466920588711763266e+05
1.316080000000000005e+01 7.545842740768718068e+05
1.319609999999999950e+01 7.583294991062543122e+05
1.323140000000000072e+01 7.592473003305583261e+05
1.326670000000000016e+01 7.592525775608803378e+05
1.330199999999999960e+01 7.590954182020795997e+05
1.333730000000000082e+01 7.580944669072446413e+05
1.337250000000000050e+01 7.566809003208678914e+05
1.340779999999999994e+01 7.560410283000844065e+05
1.344309999999999938e+01 7.566757008040337823e+05
1.347840000000000060e+01 7.590344174220834393e+05
1.351370000000000005e+01 7.636524331514175283e+05
1.354899999999999949e+01 7.701902744174959371e+05
1.358419999999999916e+01 7.775360173034800682e+05
1.361950000000000038e+01 7.845547326863628114e+05
1.365479999999999983e+01 7.903654180838329485e+05
1.369009999999999927e+01 7.951799103178976802e+05
1.372540000000000049e+01 8.003118701262586983e+05
1.376069999999999993e+01 8.065855021610477706e+05
1.379589999999999961e+01 8.132568608868065057e+05
1.383120000000000083e+01 8.184270651128421305e+05
1.386650000000000027e+01 8.211635679394550389e+05
1.390179999999999971e+01 8.217149109777082922e+05
1.393709999999999916e+01 8.197472152791516855e+05
1.397240000000000038e+01 8.149626248810165562e+05
1.400760000000000005e+01 8.080665943511986407e+05
1.404289999999999949e+01 8.008166485381750390e+05
