# energy(eV) alpha
0.000000000000000000e+00 0.000000000000000000e+00
3.950000000000000039e-02 3.077714725201614043e-01
7.900000000000000078e-02 1.231051783878839290e+00
1.185999999999999971e-01 2.772096437172523853e+00
1.580999999999999905e-01 4.926805080499099709e+00
1.975999999999999979e-01 7.696562224982033129e+00
2.371000000000000052e-01 1.108113282079150252e+01
2.767000000000000015e-01 1.508544256424286623e+01
3.161999999999999811e-01 1.969914664486382350e+01
3.557000000000000162e-01 2.492625541611614182e+01
3.951999999999999957e-01 3.076631767541150353e+01
4.348000000000000198e-01 3.722730023858704129e+01
4.742999999999999994e-01 4.429220042750471009e+01
5.138000000000000345e-01 5.196780087246792590e+01
5.533000000000000140e-01 6.079150014510624089e+01
5.927999999999999936e-01 6.914852097615045068e+01
6.323999999999999622e-01 7.927889690699274183e+01
6.719000000000000528e-01 9.008141662046253373e+01
7.114000000000000323e-01 1.008751399913726061e+02
7.509000000000000119e-01 1.122733626671329290e+02
7.904999999999999805e-01 1.250583742308621709e+02
8.299999999999999600e-01 1.385071439152818584e+02
8.695000000000000506e-01 1.517891164886680144e+02
9.090000000000000302e-01 1.665530128310755913e+02
9.485999999999999988e-01 1.820084725805714356e+02
9.880999999999999783e-01 1.990751395988171737e+02
1.027600000000000069e+00 2.148983988776889476e+02
1.067099999999999937e+00 2.333778989747314654e+02
1.106600000000000028e+00 2.515293174282611517e+02
1.146200000000000108e+00 2.714758603457419781e+02
1.185699999999999976e+00 2.921376312866862008e+02
1.225200000000000067e+00 3.123503380331625294e+02
1.264699999999999935e+00 3.344402360606550815e+02
1.304300000000000015e+00 3.572864096163454519e+02
1.343800000000000106e+00 3.808322631569301961e+02
1.383299999999999974e+00 4.050992063636748526e+02
1.422800000000000065e+00 4.314606188177380091e+02
1.462299999999999933e+00 4.586088559906853561e+02
1.501900000000000013e+00 4.851335297903873993e+02
1.541400000000000103e+00 5.138210269456594688e+02
1.580899999999999972e+00 5.432869589781264494e+02
1.620400000000000063e+00 5.750815503594160418e+02
1.659999999999999920e+00 6.077562271994410139e+02
1.699500000000000011e+00 6.396136973522562812e+02
1.739000000000000101e+00 6.738936229348421421e+02
1.778499999999999970e+00 7.090073156462589168e+02
1.818100000000000049e+00 7.467240454409277390e+02
1.857599999999999918e+00 7.852895008958545304e+02
1.897100000000000009e+00 8.247419467200160170e+02
1.936600000000000099e+00 8.650804767377977669e+02
1.976099999999999968e+00 9.081708003482475533e+02
2.015699999999999825e+00 9.522498476009898241e+02
2.055200000000000138e+00 1.001115971302391927e+03
2.094700000000000006e+00 1.045086154841060079e+03
2.134199999999999875e+00 1.093951555160377211e+03
2.173799999999999955e+00 1.145894274911067214e+03
2.213299999999999823e+00 1.198832563415236109e+03
2.252800000000000136e+00 1.254937191633693828e+03
2.292300000000000004e+00 1.309960857655754126e+03
2.331900000000000084e+00 1.368247470564198693e+03
2.371399999999999952e+00 1.429782166918471830e+03
2.410899999999999821e+00 1.490178325786647520e+03
2.450400000000000134e+00 1.558509948727756864e+03
2.489900000000000002e+00 1.623416012582868461e+03
2.529500000000000082e+00 1.696571592042050042e+03
2.568999999999999950e+00 1.768544096966517600e+03
2.608499999999999819e+00 1.846556611514151200e+03
2.648000000000000131e+00 1.925869683138520259e+03
2.687600000000000211e+00 2.006562316346489297e+03
2.727100000000000080e+00 2.093515119921846235e+03
2.766599999999999948e+00 2.181840478014498331e+03
2.806099999999999817e+00 2.276711458464364114e+03
2.845699999999999896e+00 2.373128197859457941e+03
2.885200000000000209e+00 2.476212652089465792e+03
2.924700000000000077e+00 2.578164630965206015e+03
2.964199999999999946e+00 2.689692742226344308e+03
3.003699999999999815e+00 2.808349447093627987e+03
3.043299999999999894e+00 2.928780229366824642e+03
3.082800000000000207e+00 3.053593995282314609e+03
3.122300000000000075e+00 3.185743500411272635e+03
3.161799999999999944e+00 3.325404195590002473e+03
3.201400000000000023e+00 3.472777668643662309e+03
3.240899999999999892e+00 3.624868651266401685e+03
3.280400000000000205e+00 3.787732219006542437e+03
3.319900000000000073e+00 3.958571266574170750e+03
3.359500000000000153e+00 4.137588725782673464e+03
3.399000000000000021e+00 4.330783517665063300e+03
3.438499999999999890e+00 4.529224672822534558e+03
3.478000000000000203e+00 4.745341894601238891e+03
3.517500000000000071e+00 4.976289961379289707e+03
3.557100000000000151e+00 5.219270361448948279e+03
3.596600000000000019e+00 5.480439390589122013e+03
3.636099999999999888e+00 5.760187498546637471e+03
3.675600000000000200e+00 6.065114677984956870e+03
3.715199999999999836e+00 6.392513220538041423e+03
3.754700000000000149e+00 6.748749951902681460e+03
3.794200000000000017e+00 7.137535184260764254e+03
3.833699999999999886e+00 7.565830071274210241e+03
3.873200000000000198e+00 8.040610520895786976e+03
3.912799999999999834e+00 8.575865068617253201e+03
3.952300000000000146e+00 9.178392331046619802e+03
3.991800000000000015e+00 9.879319328141549704e+03
4.031299999999999883e+00 1.069618105868431485e+04
4.070899999999999963e+00 1.167461404966907867e+04
4.110400000000000276e+00 1.289385919967367408e+04
4.149899999999999700e+00 1.444223469422125891e+04
4.189400000000000013e+00 1.645461574833115446e+04
4.229000000000000092e+00 1.900992940633169928e+04
4.268500000000000405e+00 2.211825622201202714e+04
4.307999999999999829e+00 2.573163519465363061e+04
4.347500000000000142e+00 2.982848087304400542e+04
4.386999999999999567e+00 3.439938323545335879e+04
4.426599999999999646e+00 3.937257024007204745e+04
4.466099999999999959e+00 4.479492761683065328e+04
4.505600000000000271e+00 5.075588438408031652e+04
4.545099999999999696e+00 5.701274583393618377e+04
4.584699999999999775e+00 6.332325941219036031e+04
4.624200000000000088e+00 6.977218313934133039e+04
4.663700000000000401e+00 7.571572610406859894e+04
4.703199999999999825e+00 8.023029332950185926e+04
4.742799999999999905e+00 8.412413918326284329e+04
4.782300000000000217e+00 8.849013094665623794e+04
4.821799999999999642e+00 9.332027054271996894e+04
4.861299999999999955e+00 9.845217975658428622e+04
4.900800000000000267e+00 1.043112120095041464e+05
4.940400000000000347e+00 1.111378194716713624e+05
4.979899999999999771e+00 1.188025538066769950e+05
5.019400000000000084e+00 1.270559755158261396e+05
5.058900000000000396e+00 1.358229373295707628e+05
5.098499999999999588e+00 1.452230828227135353e+05
5.137999999999999901e+00 1.549193167213569686e+05
5.177500000000000213e+00 1.648695080284271971e+05
5.216999999999999638e+00 1.751036329667171522e+05
5.256599999999999717e+00 1.858261774153249862e+05
5.296100000000000030e+00 1.977633132438273169e+05
5.335600000000000342e+00 2.112603599841301620e+05
5.375099999999999767e+00 2.262125541425150586e+05
5.414600000000000080e+00 2.423616332230720436e+05
5.454200000000000159e+00 2.598207777766611835e+05
5.493699999999999584e+00 2.786445781715814373e+05
5.533199999999999896e+00 2.993443070155928726e+05
5.572700000000000209e+00 3.230425763948583626e+05
5.612300000000000288e+00 3.494956576013092999e+05
5.651799999999999713e+00 3.776194665500374977e+05
5.691300000000000026e+00 4.064853782928007422e+05
5.730800000000000338e+00 4.341948341450771550e+05
5.770299999999999763e+00 4.596187573413769132e+05
5.809899999999999842e+00 4.813510389830706990e+05
5.849400000000000155e+00 4.969223960718822782e+05
5.888899999999999579e+00 5.069958838757185731e+05
5.928399999999999892e+00 5.154023041613245150e+05
5.967999999999999972e+00 5.244433514286932768e+05
6.007500000000000284e+00 5.329189306529072346e+05
6.046999999999999709e+00 5.395245384969656589e+05
6.086500000000000021e+00 5.441749680714615388e+05
6.126100000000000101e+00 5.482759764498465229e+05
6.165600000000000414e+00 5.533963131256991765e+05
6.205099999999999838e+00 5.600798540099941893e+05
6.244600000000000151e+00 5.681570843331579817e+05
6.284099999999999575e+00 5.764356722128205001e+05
6.323699999999999655e+00 5.831095179768200032e+05
6.363199999999999967e+00 5.874672233235095628e+05
6.402700000000000280e+00 5.894824755411167862e+05
6.442199999999999704e+00 5.900716004014494829e+05
6.481799999999999784e+00 5.900127454045250779e+05
6.521300000000000097e+00 5.894115178050603718e+05
6.560800000000000409e+00 5.883726900631986791e+05
6.600299999999999834e+00 5.868748464151020162e+05
6.639899999999999913e+00 5.853833396993045462e+05
6.679400000000000226e+00 5.848367019404658349e+05
6.718899999999999650e+00 5.868079331402806565e+05
6.758399999999999963e+00 5.921201619452292798e+05
6.797900000000000276e+00 6.000644216758362018e+05
6.837500000000000355e+00 6.101269365178695880e+05
6.876999999999999780e+00 6.217506733221653849e+05
6.916500000000000092e+00 6.334256451168529456e+05
6.956000000000000405e+00 6.441049929895775858e+05
6.995599999999999596e+00 6.534670838070684113e+05
7.035099999999999909e+00 6.621081606366075575e+05
7.074600000000000222e+00 6.709197819726873422e+05
7.114099999999999646e+00 6.794737927307809005e+05
7.153699999999999726e+00 6.865920065087749390e+05
7.193200000000000038e+00 6.910767607810733607e+05
7.232700000000000351e+00 6.925030883344768081e+05
7.272199999999999775e+00 6.924936141462028027e+05
7.311700000000000088e+00 6.929609953763789963e+05
7.351300000000000168e+00 6.936007462728015380e+05
7.390799999999999592e+00 6.931993620333650615e+05
7.430299999999999905e+00 6.915232951441296609e+05
7.469800000000000217e+00 6.890882227913063252e+05
7.509400000000000297e+00 6.869466300529475557e+05
7.548899999999999721e+00 6.862134257320986362e+05
7.588400000000000034e+00 6.883546929290930275e+05
7.627900000000000347e+00 6.939916910193042131e+05
7.667500000000000426e+00 7.018300248871806543e+05
7.706999999999999851e+00 7.106193258595780935e+05
7.746500000000000163e+00 7.206261491118865088e+05
7.785999999999999588e+00 7.319413386396310525e+05
7.825499999999999901e+00 7.435819146413884591e+05
7.865099999999999980e+00 7.548615216001727385e+05
7.904600000000000293e+00 7.660148624897184782e+05
7.944099999999999717e+00 7.772110760997402249e+05
7.983600000000000030e+00 7.877430740862035891e+05
8.023199999999999221e+00 7.971788580429783324e+05
8.062699999999999534e+00 8.054845749651255319e+05
8.102199999999999847e+00 8.126469760071764467e+05
8.141700000000000159e+00 8.179354938296832843e+05
8.181200000000000472e+00 8.220085194214202929e+05
8.220800000000000551e+00 8.267368997657791479e+05
8.260300000000000864e+00 8.325212837645370746e+05
8.299799999999999400e+00 8.384107148291856283e+05
8.339299999999999713e+00 8.429989839484108379e+05
8.378899999999999793e+00 8.454485638778252760e+05
8.418400000000000105e+00 8.456083856768915430e+05
8.457900000000000418e+00 8.431054678596619051e+05
8.497400000000000730e+00 8.385187883856453700e+05
8.537000000000000810e+00 8.341411950445788680e+05
8.576499999999999346e+00 8.325288204684418160e+05
8.615999999999999659e+00 8.358011025318759494e+05
8.655499999999999972e+00 8.460446591638942482e+05
8.695000000000000284e+00 8.655832208710397827e+05
8.734600000000000364e+00 8.931896652105865069e+05
8.774100000000000676e+00 9.202758290280527435e+05
8.813599999999999213e+00 9.388656543585602194e+05
8.853099999999999525e+00 9.466950769063596381e+05
8.892699999999999605e+00 9.434571379121993668e+05
8.932199999999999918e+00 9.329724299166423734e+05
8.971700000000000230e+00 9.215512694359010784e+05
9.011200000000000543e+00 9.133705451559179928e+05
9.050800000000000622e+00 9.090647967280622106e+05
9.090299999999999159e+00 9.066515153282026295e+05
9.129799999999999471e+00 9.038140200838746969e+05
9.169299999999999784e+00 8.997012824732273584e+05
9.208800000000000097e+00 8.955963725010623457e+05
9.248400000000000176e+00 8.922148304088229779e+05
9.287900000000000489e+00 8.886210953316139057e+05
9.327400000000000801e+00 8.834050868562479736e+05
9.366899999999999338e+00 8.765750606387800071e+05
9.406499999999999417e+00 8.693471512520214310e+05
9.445999999999999730e+00 8.627120050634439103e+05
9.485500000000000043e+00 8.570280339558444684e+05
9.525000000000000355e+00 8.515648344913126202e+05
9.564600000000000435e+00 8.460722292033950798e+05
9.604100000000000747e+00 8.415461011400873540e+05
9.643599999999999284e+00 8.385716657845543232e+05
9.683099999999999596e+00 8.360347608565213159e+05
9.722599999999999909e+00 8.326202652560193092e+05
9.762199999999999989e+00 8.284301963434962090e+05
9.801700000000000301e+00 8.247442823347235098e+05
9.841200000000000614e+00 8.227303502810361097e+05
9.880699999999999150e+00 8.213501532066573855e+05
9.920299999999999230e+00 8.192473341457577189e+05
9.959799999999999542e+00 8.165363551227175631e+05
9.999299999999999855e+00 8.139985302226694766e+05
1.003880000000000017e+01 8.117006915332763456e+05
1.007840000000000025e+01 8.099721529892042745e+05
1.011790000000000056e+01 8.089724011393921683e+05
1.015740000000000087e+01 8.085318546211466892e+05
1.019689999999999941e+01 8.084102809615635779e+05
1.023639999999999972e+01 8.090537046032538638e+05
1.027599999999999980e+01 8.105356066150128609e+05
1.031550000000000011e+01 8.125327266331026331e+05
1.035500000000000043e+01 8.145126092227395857e+05
1.039450000000000074e+01 8.164723194156478858e+05
1.043410000000000082e+01 8.189849291969340993e+05
1.047359999999999935e+01 8.222476181271024980e+05
1.051309999999999967e+01 8.259511485973192612e+05
1.055259999999999998e+01 8.290154700495890575e+05
1.059210000000000029e+01 8.310010735017015832e+05
1.063170000000000037e+01 8.327056353614297695e+05
1.067120000000000068e+01 8.343718910217026714e+05
1.071069999999999922e+01 8.359492406001556665e+05
1.075019999999999953e+01 8.374289037087735487e+05
1.078979999999999961e+01 8.389967124216422671e+05
1.082929999999999993e+01 8.408910565669103526e+05
1.086880000000000024e+01 8.425852278347323881e+05
1.090830000000000055e+01 8.436929039109693840e+05
1.094790000000000063e+01 8.443930674806184834e+05
1.098739999999999917e+01 8.452914341178615578e+05
1.102689999999999948e+01 8.462972918043613899e+05
1.106639999999999979e+01 8.462800496730391169e+05
1.110590000000000011e+01 8.451307635023151524e+05
1.114550000000000018e+01 8.441938393204896711e+05
1.118500000000000050e+01 8.447690989413075149e+05
1.122450000000000081e+01 8.466362504992852919e+05
1.126399999999999935e+01 8.483305881404585671e+05
1.130359999999999943e+01 8.487781177394036204e+05
1.134309999999999974e+01 8.487951162585590500e+05
1.138260000000000005e+01 8.498322720588585362e+05
1.142210000000000036e+01 8.517653457160661928e+05
1.146170000000000044e+01 8.539738765808083117e+05
1.150120000000000076e+01 8.564632157013401156e+05
1.154069999999999929e+01 8.597578469562460668e+05
1.158019999999999960e+01 8.635900805347167188e+05
1.161969999999999992e+01 8.670314144628720824e+05
1.165930000000000000e+01 8.697064963244454702e+05
1.169880000000000031e+01 8.714241743422241416e+05
1.173830000000000062e+01 8.718589473508335650e+05
1.177779999999999916e+01 8.712597800407732138e+05
1.181739999999999924e+01 8.702402074481013697e+05
1.185689999999999955e+01 8.688449254529774189e+05
1.189639999999999986e+01 8.670527243826892227e+05
1.193590000000000018e+01 8.644132989353210432e+05
1.197550000000000026e+01 8.599219745956914267e+05
1.201500000000000057e+01 8.544724703894046834e+05
1.205450000000000088e+01 8.498766530777945882e+05
1.209399999999999942e+01 8.470439400204174453e+05
1.213349999999999973e+01 8.454638586934545310e+05
1.217309999999999981e+01 8.443869835946630919e+05
1.221260000000000012e+01 8.437215761473430321e+05
1.225210000000000043e+01 8.437787035582392709e+05
1.229160000000000075e+01 8.453684640042072861e+05
1.233120000000000083e+01 8.483470267350256909e+05
1.237069999999999936e+01 8.513466424566450296e+05
1.241019999999999968e+01 8.535100439003594220e+05
1.244969999999999999e+01 8.545257520754348952e+05
1.248930000000000007e+01 8.538707432927424088e+05
1.252880000000000038e+01 8.519048690239608986e+05
1.256830000000000069e+01 8.501213566792765632e+05
1.260779999999999923e+01 8.489621814626508858e+05
1.264729999999999954e+01 8.483061517453001579e+05
1.268689999999999962e+01 8.475976398258365225e+05
1.272639999999999993e+01 8.465317906684385380e+05
1.276590000000000025e+01 8.458419209802903933e+05
1.280540000000000056e+01 8.469377467317455448e+05
1.284500000000000064e+01 8.505658265678159660e+05
1.288449999999999918e+01 8.562838365986548597e+05
1.292399999999999949e+01 8.628101326708175475e+05
1.296349999999999980e+01 8.690920999740984989e+05
1.300300000000000011e+01 8.753293029751945287e+05
1.304260000000000019e+01 8.812713509669317864e+05
1.308210000000000051e+01 8.866714923862786964e+05
1.312160000000000082e+01 8.917778592408578843e+05
1.316109999999999935e+01 8.962129762549146544e+05
1.320069999999999943e+01 8.993341270200053696e+05
1.324019999999999975e+01 9.013763154472636525e+05
1.327970000000000006e+01 9.029394071787619032e+05
1.331920000000000037e+01 9.038113213122063316e+05
1.335880000000000045e+01 9.038570107923337491e+05
1.339830000000000076e+01 9.029641473550925730e+05
1.343779999999999930e+01 9.006044367512373719e+05
1.347729999999999961e+01 8.966181801282479428e+05
1.351679999999999993e+01 8.918796826920298627e+05
1.355640000000000001e+01 8.869921649952359730e+05
1.359590000000000032e+01 8.815597192855579779e+05
1.363540000000000063e+01 8.758594813121637562e+05
1.367489999999999917e+01 8.697383016363567440e+05
1.371449999999999925e+01 8.627741285021997755e+05
1.375399999999999956e+01 8.554020043458809378e+05
1.379349999999999987e+01 8.484187673878658097e+05
1.383300000000000018e+01 8.420439246846477035e+05
1.387260000000000026e+01 8.358623403872309718e+05
1.391210000000000058e+01 8.296001849019003566e+05
1.395159999999999911e+01 8.230679493954743957e+05
1.399109999999999943e+01 8.166266061438481556e+05
1.403059999999999974e+01 8.103741051285293652e+05
1.407019999999999982e+01 8.044742567122277105e+05
1.410970000000000013e+01 7.996142736179026542e+05
1.414920000000000044e+01 7.965995724906901596e+05
1.418870000000000076e+01 7.949528317410495365e+05
1.422830000000000084e+01 7.929481381704123924e+05
1.426779999999999937e+01 7.894187382024279796e+05
1.430729999999999968e+01 7.849666758846929297e+05
1.434680000000000000e+01 7.816735723729929887e+05
1.438640000000000008e+01 7.798951338438355597e+05
1.442590000000000039e+01 7.783227879837262444e+05
1.446540000000000070e+01 7.759843370028231293e+05
1.450489999999999924e+01 7.724961466201550793e+05
1.454439999999999955e+01 7.680414440649074968e+05
1.458399999999999963e+01 7.635646533880220959e+05
1.462349999999999994e+01 7.593099657347465400e+05
1.466300000000000026e+01 7.552903052748694317e+05
1.470250000000000057e+01 7.524293945849871961e+05
1.474210000000000065e+01 7.515667669835838024e+05
1.478159999999999918e+01 7.535287635258601513e+05
1.482109999999999950e+01 7.600281077183723683e+05
1.486059999999999981e+01 7.727514639167425921e+05
1.490019999999999989e+01 7.940981207286032150e+05
1.493970000000000020e+01 8.278647766107814386e+05
1.497920000000000051e+01 8.735435752216911642e+05
1.501870000000000083e+01 9.214762762970000040e+05
1.505819999999999936e+01 9.632539331346927211e+05
1.509779999999999944e+01 9.957901376283084974e+05
1.513729999999999976e+01 1.014048513303041691e+06
1.517680000000000007e+01 1.011177645774734556e+06
1.521630000000000038e+01 9.871518815671947086e+05
1.525590000000000046e+01 9.554453175031531136e+05
1.529540000000000077e+01 9.288145355616246816e+05
1.533489999999999931e+01 9.103662305166374426e+05
1.537439999999999962e+01 8.987680531302485615e+05
1.541389999999999993e+01 8.919831260231952183e+05
1.545350000000000001e+01 8.888314298266622936e+05
1.549300000000000033e+01 8.887396948230868438e+05
1.553250000000000064e+01 8.906027020091649611e+05
1.557199999999999918e+01 8.928531341860044049e+05
1.561159999999999926e+01 8.949204614539968316e+05
1.565109999999999957e+01 8.956221864181131823e+05
1.569059999999999988e+01 8.938028432545193937e+05
1.573010000000000019e+01 8.902852220214037225e+05
