# energy(eV) alpha
0.000000000000000000e+00 0.000000000000000000e+00
4.189999999999999974e-02 6.583615213063229721e-01
8.379999999999999949e-02 2.487021750860657132e+00
1.257999999999999952e-01 5.709576653945254598e+00
1.676999999999999880e-01 1.009842778287546672e+01
2.096000000000000085e-01 1.591176606570694041e+01
2.515000000000000013e-01 2.303869562036231500e+01
2.933999999999999941e-01 3.122179511587516387e+01
3.352999999999999869e-01 4.093486685900851541e+01
3.773000000000000242e-01 5.197040518113031027e+01
4.192000000000000171e-01 6.430003647030531511e+01
4.611000000000000099e-01 7.793344501033770655e+01
5.030000000000000027e-01 9.286824678649257692e+01
5.449000000000000510e-01 1.095759461032806570e+02
5.868999999999999773e-01 1.271621073076554893e+02
6.288000000000000256e-01 1.465656845533137869e+02
6.706999999999999629e-01 1.667465320036911862e+02
7.126000000000000112e-01 1.894489114505686871e+02
7.544999999999999485e-01 2.135733976116602264e+02
7.963999999999999968e-01 2.391157147953235835e+02
8.384000000000000341e-01 2.653764254879483815e+02
8.802999999999999714e-01 2.944671561098454049e+02
9.222000000000000197e-01 3.250291562873287035e+02
9.640999999999999570e-01 3.562229974922808537e+02
1.006000000000000005e+00 3.905430789099138451e+02
1.048000000000000043e+00 4.255180786262129118e+02
1.089900000000000091e+00 4.628394532199413334e+02
1.131799999999999917e+00 5.016640307620370436e+02
1.173699999999999966e+00 5.440074481400193918e+02
1.215600000000000014e+00 5.858863484893400937e+02
1.257500000000000062e+00 6.314004826212179751e+02
1.299500000000000099e+00 6.796904023827908077e+02
1.341399999999999926e+00 7.307379592529563297e+02
1.383299999999999974e+00 7.823201231863686189e+02
1.425200000000000022e+00 8.367606523447143445e+02
1.467100000000000071e+00 8.928921931631382449e+02
1.509100000000000108e+00 9.533364489469912542e+02
1.550999999999999934e+00 1.015514072252707592e+03
1.592899999999999983e+00 1.080830418576123293e+03
1.634800000000000031e+00 1.149361064825011908e+03
1.676700000000000079e+00 1.219770134940527669e+03
1.718599999999999905e+00 1.296398321387604256e+03
1.760599999999999943e+00 1.375143832925844663e+03
1.802499999999999991e+00 1.455808230243787875e+03
1.844400000000000039e+00 1.541572364448011967e+03
1.886300000000000088e+00 1.631007651318391709e+03
1.928199999999999914e+00 1.725805598464230570e+03
1.970199999999999951e+00 1.822911850972311640e+03
2.012100000000000222e+00 1.925483603872289223e+03
2.053999999999999826e+00 2.032037299048763316e+03
2.095899999999999874e+00 2.147884251879123894e+03
2.137799999999999923e+00 2.262663853367855154e+03
2.179699999999999971e+00 2.388835823694688315e+03
2.221699999999999786e+00 2.517723339762724663e+03
2.263599999999999834e+00 2.656510847862724859e+03
2.305499999999999883e+00 2.798027950411722486e+03
2.347399999999999931e+00 2.949934075378114812e+03
2.389299999999999979e+00 3.108560782216884490e+03
2.431200000000000028e+00 3.280024336759187008e+03
2.473199999999999843e+00 3.454705853358742843e+03
2.515099999999999891e+00 3.640415993209835960e+03
2.556999999999999940e+00 3.839609874062618474e+03
2.598899999999999988e+00 4.048400689178500215e+03
2.640800000000000036e+00 4.269040249118120300e+03
2.682799999999999851e+00 4.506198172905963474e+03
2.724699999999999900e+00 4.755512427713041689e+03
2.766599999999999948e+00 5.019506934773984540e+03
2.808499999999999996e+00 5.305056006181100202e+03
2.850400000000000045e+00 5.605835670354475951e+03
2.892300000000000093e+00 5.931121054937104418e+03
2.934299999999999908e+00 6.279155012607796380e+03
2.976199999999999957e+00 6.654508856288657626e+03
3.018100000000000005e+00 7.060025290567268712e+03
3.060000000000000053e+00 7.493797036689785273e+03
3.101900000000000102e+00 7.970283781932451348e+03
3.143899999999999917e+00 8.487908253035278904e+03
3.185799999999999965e+00 9.056159634417444977e+03
3.227700000000000014e+00 9.685497346316209587e+03
3.269600000000000062e+00 1.037888824178689538e+04
3.311500000000000110e+00 1.115640593959317812e+04
3.353400000000000158e+00 1.203346990168167395e+04
3.395399999999999974e+00 1.303078618231944711e+04
3.437300000000000022e+00 1.419329252346035719e+04
3.479200000000000070e+00 1.557492915900032312e+04
3.521100000000000119e+00 1.725237349617712607e+04
3.563000000000000167e+00 1.934389304763044856e+04
3.604999999999999982e+00 2.199071227210664074e+04
3.646900000000000031e+00 2.529615648582568974e+04
3.688800000000000079e+00 2.923459495217891526e+04
3.730700000000000127e+00 3.371800588887256890e+04
3.772600000000000176e+00 3.880315435030010121e+04
3.814499999999999780e+00 4.476324728443728964e+04
3.856500000000000039e+00 5.180475008782950317e+04
3.898400000000000087e+00 5.989472157139337651e+04
3.940300000000000136e+00 6.894213051882373111e+04
3.982200000000000184e+00 7.932284919632169476e+04
4.024099999999999788e+00 9.171271650954762299e+04
4.066099999999999604e+00 1.065997600952341018e+05
4.107999999999999652e+00 1.244563608340405190e+05
4.149899999999999700e+00 1.453129756421897619e+05
4.191799999999999748e+00 1.687034674573962402e+05
4.233699999999999797e+00 1.942790155326603272e+05
4.275599999999999845e+00 2.213569953542189614e+05
4.317599999999999660e+00 2.490302577668431622e+05
4.359499999999999709e+00 2.758481301460412215e+05
4.401399999999999757e+00 3.013468500892142765e+05
4.443299999999999805e+00 3.270779678871623473e+05
4.485199999999999854e+00 3.538550897607093211e+05
4.527199999999999669e+00 3.802459451511615771e+05
4.569099999999999717e+00 4.057295979091784684e+05
4.610999999999999766e+00 4.310402102500995970e+05
4.652899999999999814e+00 4.562988929440501379e+05
4.694799999999999862e+00 4.802922913202060736e+05
4.736699999999999910e+00 5.008736000866785762e+05
4.778699999999999726e+00 5.168192030954229413e+05
4.820599999999999774e+00 5.278609878334491514e+05
4.862499999999999822e+00 5.338831693837540224e+05
4.904399999999999871e+00 5.357984741796513554e+05
4.946299999999999919e+00 5.342541019164315658e+05
4.988299999999999734e+00 5.300932734999605455e+05
5.030199999999999783e+00 5.244032731842412613e+05
5.072099999999999831e+00 5.170530503413751139e+05
5.113999999999999879e+00 5.077200574883156805e+05
5.155899999999999928e+00 4.968337978727957816e+05
5.197799999999999976e+00 4.860725159014004748e+05
5.239799999999999791e+00 4.771377183073518099e+05
5.281699999999999839e+00 4.703123147216904326e+05
5.323599999999999888e+00 4.661704868360621622e+05
5.365499999999999936e+00 4.659682810338981217e+05
5.407399999999999984e+00 4.702438861349486397e+05
5.449399999999999800e+00 4.794904599273945205e+05
5.491299999999999848e+00 4.949906234711715369e+05
5.533199999999999896e+00 5.167566962359379977e+05
5.575099999999999945e+00 5.406840047993947519e+05
5.616999999999999993e+00 5.601783175043727970e+05
5.658900000000000041e+00 5.726797489065584959e+05
5.700899999999999856e+00 5.808156760867105331e+05
5.742799999999999905e+00 5.881319443636512151e+05
5.784699999999999953e+00 5.961651629807811696e+05
5.826600000000000001e+00 6.049813166667603655e+05
5.868500000000000050e+00 6.144118195135440910e+05
5.910499999999999865e+00 6.240755889111607103e+05
5.952399999999999913e+00 6.329906621899317252e+05
5.994299999999999962e+00 6.408908498847228475e+05
6.036200000000000010e+00 6.485940607097090688e+05
6.078100000000000058e+00 6.572054000799319474e+05
6.120000000000000107e+00 6.675467648926420370e+05
6.161999999999999922e+00 6.805104182517889421e+05
6.203899999999999970e+00 6.965250510087118018e+05
6.245800000000000018e+00 7.160810415208884515e+05
6.287700000000000067e+00 7.387192483465247788e+05
6.329600000000000115e+00 7.629513973759051878e+05
6.371599999999999930e+00 7.865846095835043816e+05
6.413499999999999979e+00 8.092984266380462795e+05
6.455400000000000027e+00 8.319820273007448995e+05
6.497300000000000075e+00 8.546497572387644323e+05
6.539200000000000124e+00 8.766573429891121341e+05
6.581100000000000172e+00 8.973276103533746209e+05
6.623099999999999987e+00 9.161494511000098428e+05
6.665000000000000036e+00 9.328372497785688611e+05
6.706900000000000084e+00 9.473842717655424494e+05
6.748800000000000132e+00 9.599425482413870050e+05
6.790700000000000180e+00 9.708939125429795822e+05
6.832699999999999996e+00 9.801694745766136330e+05
6.874600000000000044e+00 9.870540787680887152e+05
6.916500000000000092e+00 9.916538771749769803e+05
6.958400000000000141e+00 9.942073986999391345e+05
7.000300000000000189e+00 9.942696524636616232e+05
7.042200000000000237e+00 9.914483628874234855e+05
7.084200000000000053e+00 9.867689510678383522e+05
7.126100000000000101e+00 9.812146174991634907e+05
7.168000000000000149e+00 9.740804838523857761e+05
7.209900000000000198e+00 9.651533674672098132e+05
7.251800000000000246e+00 9.561435709653247613e+05
7.293700000000000294e+00 9.480451457256503636e+05
7.335700000000000109e+00 9.407641123740662588e+05
7.377600000000000158e+00 9.341089210439691087e+05
7.419500000000000206e+00 9.287769128454063321e+05
7.461400000000000254e+00 9.251750295727684861e+05
7.503300000000000303e+00 9.224261588707213523e+05
7.545300000000000118e+00 9.200276075959183509e+05
7.587200000000000166e+00 9.184541772504479159e+05
7.629100000000000215e+00 9.175600601894116262e+05
7.671000000000000263e+00 9.173858410280097742e+05
7.712900000000000311e+00 9.180222481331615709e+05
7.754800000000000360e+00 9.189421048505081562e+05
7.796800000000000175e+00 9.196176324198725633e+05
7.838700000000000223e+00 9.201024000502689742e+05
7.880600000000000271e+00 9.211188844745409442e+05
7.922500000000000320e+00 9.227942019581377972e+05
7.964400000000000368e+00 9.247212205576740671e+05
8.006399999999999295e+00 9.270070411950650159e+05
8.048299999999999343e+00 9.298628363867570879e+05
8.090199999999999392e+00 9.327444837109354557e+05
8.132099999999999440e+00 9.352271474859450245e+05
8.173999999999999488e+00 9.377763074816256994e+05
8.215899999999999537e+00 9.410932876167200739e+05
8.257899999999999352e+00 9.450943512006233213e+05
8.299799999999999400e+00 9.495499239998923149e+05
8.341699999999999449e+00 9.543932103308018995e+05
8.383599999999999497e+00 9.593268416046994971e+05
8.425499999999999545e+00 9.636297888235134305e+05
8.467499999999999361e+00 9.668604432753927540e+05
8.509399999999999409e+00 9.692889048581410898e+05
8.551299999999999457e+00 9.718200055405409075e+05
8.593199999999999505e+00 9.755626092811855488e+05
8.635099999999999554e+00 9.813534196644165786e+05
8.676999999999999602e+00 9.910058809975775657e+05
8.718999999999999417e+00 1.007539472023251932e+06
8.760899999999999466e+00 1.031034782933946815e+06
8.802799999999999514e+00 1.053318196212664247e+06
8.844699999999999562e+00 1.062933909208370373e+06
8.886599999999999611e+00 1.061771876106830081e+06
8.928599999999999426e+00 1.058959685359980911e+06
8.970499999999999474e+00 1.057920595752458554e+06
9.012399999999999523e+00 1.058051914669266902e+06
9.054299999999999571e+00 1.058688964082658524e+06
9.096199999999999619e+00 1.059315118821757846e+06
9.138099999999999667e+00 1.059692188190586632e+06
9.180099999999999483e+00 1.060161063085123897e+06
9.221999999999999531e+00 1.061080888479091227e+06
9.263899999999999579e+00 1.063147726384537062e+06
9.305799999999999628e+00 1.066532786385229323e+06
9.347699999999999676e+00 1.070537810731571401e+06
9.389699999999999491e+00 1.074443460458225338e+06
9.431599999999999540e+00 1.078109348514116602e+06
9.473499999999999588e+00 1.081366924323634245e+06
9.515399999999999636e+00 1.083975583495717961e+06
9.557299999999999685e+00 1.085751370958786225e+06
9.599199999999999733e+00 1.086957240960132563e+06
9.641199999999999548e+00 1.087830270467551192e+06
9.683099999999999596e+00 1.088461465646932367e+06
9.724999999999999645e+00 1.089150815127157141e+06
9.766899999999999693e+00 1.090015414270791691e+06
9.808799999999999741e+00 1.090898013322776416e+06
9.850799999999999557e+00 1.092406157179218484e+06
9.892699999999999605e+00 1.095239517176088644e+06
9.934599999999999653e+00 1.098755204053013353e+06
9.976499999999999702e+00 1.101764616921048379e+06
1.001839999999999975e+01 1.104168319975199178e+06
1.006029999999999980e+01 1.106489530583344866e+06
1.010229999999999961e+01 1.108836991920958506e+06
1.014419999999999966e+01 1.110571200845544459e+06
1.018609999999999971e+01 1.111304005669042468e+06
1.022799999999999976e+01 1.111024031470184913e+06
1.026989999999999981e+01 1.109906510964113753e+06
1.031189999999999962e+01 1.107638201225946657e+06
1.035379999999999967e+01 1.104103866290797479e+06
1.039569999999999972e+01 1.099941145969982725e+06
1.043759999999999977e+01 1.094832622166829649e+06
1.047949999999999982e+01 1.088316193795858882e+06
1.052139999999999986e+01 1.081073914621929871e+06
1.056339999999999968e+01 1.073513380077232141e+06
1.060529999999999973e+01 1.065600200360947289e+06
1.064719999999999978e+01 1.057381157866679598e+06
1.068909999999999982e+01 1.049630205486189807e+06
1.073099999999999987e+01 1.042564057764398516e+06
1.077299999999999969e+01 1.035532518327328027e+06
1.081489999999999974e+01 1.027973916698852088e+06
1.085679999999999978e+01 1.019551973861163133e+06
1.089869999999999983e+01 1.010232681645062286e+06
1.094059999999999988e+01 1.000735748677424504e+06
1.098249999999999993e+01 9.919451355642003473e+05
1.102449999999999974e+01 9.839461881007979391e+05
1.106639999999999979e+01 9.760935649828077294e+05
1.110829999999999984e+01 9.679730266416501254e+05
1.115019999999999989e+01 9.601857903251305688e+05
1.119209999999999994e+01 9.537883149997154251e+05
1.123409999999999975e+01 9.490603749778136844e+05
1.127599999999999980e+01 9.450703496839466970e+05
1.131789999999999985e+01 9.404503730578053510e+05
1.135979999999999990e+01 9.350332954298162367e+05
1.140169999999999995e+01 9.293460276044799248e+05
1.144359999999999999e+01 9.232137045415998437e+05
1.148559999999999981e+01 9.164618314779119100e+05
1.152749999999999986e+01 9.091079340458618244e+05
1.156939999999999991e+01 9.013803815615600906e+05
1.161129999999999995e+01 8.940904581379482988e+05
1.165320000000000000e+01 8.881473234990885248e+05
1.169519999999999982e+01 8.834216003609253094e+05
1.173709999999999987e+01 8.788567924919055076e+05
1.177899999999999991e+01 8.739547755774111720e+05
1.182089999999999996e+01 8.683883172756461427e+05
1.186280000000000001e+01 8.620868531435740879e+05
1.190470000000000006e+01 8.554016944676394342e+05
1.194669999999999987e+01 8.491118494700021110e+05
1.198859999999999992e+01 8.435927867412823252e+05
1.203049999999999997e+01 8.385479760498646647e+05
1.207240000000000002e+01 8.338629682083919179e+05
1.211430000000000007e+01 8.294974555192269618e+05
1.215620000000000012e+01 8.252254569565840065e+05
1.219819999999999993e+01 8.203278560226886766e+05
1.224009999999999998e+01 8.142726819835818605e+05
1.228200000000000003e+01 8.082890687286671018e+05
1.232390000000000008e+01 8.034768686600479996e+05
1.236580000000000013e+01 8.005344859319898533e+05
1.240779999999999994e+01 8.002741456921390491e+05
1.244969999999999999e+01 8.024756324519116897e+05
1.249160000000000004e+01 8.063824965197866550e+05
1.253350000000000009e+01 8.112601837111529894e+05
1.257540000000000013e+01 8.159895930081394035e+05
1.261730000000000018e+01 8.203297520947961602e+05
1.265930000000000000e+01 8.248424675819905242e+05
1.270120000000000005e+01 8.296860873591678683e+05
1.274310000000000009e+01 8.348755053097275086e+05
1.278500000000000014e+01 8.392416350296066375e+05
1.282690000000000019e+01 8.421742136768363416e+05
1.286890000000000001e+01 8.444824142202112125e+05
1.291080000000000005e+01 8.463681333584422246e+05
1.295270000000000010e+01 8.467509949152841000e+05
1.299460000000000015e+01 8.450807525548412232e+05
1.303650000000000020e+01 8.418065609246609965e+05
1.307840000000000025e+01 8.379559707605137955e+05
1.312040000000000006e+01 8.352011729746278143e+05
1.316230000000000011e+01 8.342971785654992564e+05
1.320420000000000016e+01 8.353263641185913002e+05
1.324610000000000021e+01 8.384930513386696111e+05
1.328800000000000026e+01 8.439241549131321954e+05
1.333000000000000007e+01 8.502608778925802326e+05
1.337190000000000012e+01 8.559839325113822706e+05
1.341380000000000017e+01 8.603199582098835381e+05
1.345570000000000022e+01 8.632315180399552919e+05
1.349760000000000026e+01 8.653814875311207725e+05
1.353950000000000031e+01 8.666511824260361027e+05
1.358150000000000013e+01 8.659950891660770867e+05
1.362340000000000018e+01 8.627856462092123693e+05
1.366530000000000022e+01 8.579384402620564215e+05
1.370720000000000027e+01 8.524597749534802279e+05
1.374910000000000032e+01 8.467113473881944083e+05
1.379110000000000014e+01 8.403498726414968260e+05
1.383300000000000018e+01 8.331069889560859883e+05
1.387490000000000023e+01 8.253915581995298853e+05
1.391680000000000028e+01 8.179698054503600579e+05
1.395870000000000033e+01 8.111462900115650846e+05
1.400060000000000038e+01 8.051211619435697794e+05
1.404260000000000019e+01 8.003122001649835147e+05
1.408450000000000024e+01 7.968330907008924987e+05
1.412640000000000029e+01 7.938702881191291381e+05
1.416830000000000034e+01 7.905996397886234336e+05
1.421020000000000039e+01 7.871421222629933618e+05
1.425220000000000020e+01 7.838359228032864630e+05
1.429410000000000025e+01 7.810688827100845519e+05
1.433600000000000030e+01 7.789255411942602368e+05
1.437790000000000035e+01 7.772570815079850145e+05
1.441980000000000040e+01 7.756816786366270389e+05
1.446170000000000044e+01 7.737933601175037911e+05
1.450370000000000026e+01 7.711265497492430732e+05
1.454560000000000031e+01 7.671263177092315163e+05
1.458750000000000036e+01 7.617810017452280736e+05
1.462940000000000040e+01 7.554819212530710502e+05
1.467130000000000045e+01 7.488272226513271453e+05
1.471330000000000027e+01 7.428964870409884024e+05
1.475520000000000032e+01 7.380147354106066050e+05
1.479710000000000036e+01 7.333067646894773934e+05
1.483900000000000041e+01 7.280661691032608505e+05
1.488090000000000046e+01 7.234958349450159585e+05
1.492280000000000051e+01 7.216875659638133366e+05
1.496480000000000032e+01 7.243612989639152074e+05
1.500670000000000037e+01 7.342790648561919807e+05
1.504860000000000042e+01 7.551911871672386769e+05
1.509050000000000047e+01 7.870074896817571716e+05
1.513240000000000052e+01 8.227653540653828532e+05
1.517440000000000033e+01 8.516019678077641875e+05
1.521630000000000038e+01 8.625863341702229809e+05
1.525820000000000043e+01 8.511630452495861100e+05
1.530010000000000048e+01 8.275371328538225498e+05
1.534200000000000053e+01 8.043620247960236156e+05
1.538390000000000057e+01 7.859622143189781345e+05
1.542590000000000039e+01 7.717494374967359472e+05
1.546780000000000044e+01 7.605065738885004539e+05
1.550970000000000049e+01 7.510749753418560140e+05
1.555160000000000053e+01 7.421405634088108782e+05
1.559350000000000058e+01 7.334919820583923720e+05
1.563550000000000040e+01 7.252495641537036281e+05
1.567740000000000045e+01 7.179647294492593501e+05
1.571930000000000049e+01 7.115518769529671408e+05
1.576120000000000054e+01 7.054298950909101404e+05
1.580310000000000059e+01 6.994381587540818145e+05
1.584500000000000064e+01 6.931170850144836586e+05
1.588700000000000045e+01 6.867015052921141032e+05
1.592890000000000050e+01 6.806310726720694220e+05
1.597080000000000055e+01 6.749294069355516694e+05
1.601269999999999882e+01 6.695033338055557106e+05
1.605460000000000065e+01 6.645500734954561340e+05
1.609659999999999869e+01 6.602667787925670855e+05
1.613850000000000051e+01 6.563433051129383966e+05
1.618039999999999878e+01 6.528253491701863240e+05
1.622230000000000061e+01 6.493384939400791191e+05
1.626419999999999888e+01 6.455654119130346226e+05
1.630610000000000070e+01 6.414506521011934383e+05
1.634809999999999874e+01 6.375594348281002603e+05
1.639000000000000057e+01 6.341053058656818466e+05
1.643189999999999884e+01 6.303945973364982056e+05
1.647380000000000067e+01 6.260866881585015217e+05
1.651569999999999894e+01 6.211474596263916465e+05
1.655770000000000053e+01 6.162790290954723023e+05
1.659959999999999880e+01 6.124881632665669313e+05
1.664150000000000063e+01 6.098608416310576722e+05
1.668339999999999890e+01 6.072569173936229199e+05
