# energy(eV) alpha
0.000000000000000000e+00 0.000000000000000000e+00
4.259999999999999898e-02 3.737084581010734485e-01
8.519999999999999796e-02 1.411740500942616050e+00
1.277999999999999969e-01 3.238519083881933103e+00
1.705000000000000127e-01 5.815718286522432834e+00
2.131000000000000116e-01 9.344764219265197625e+00
2.556999999999999829e-01 1.320469574470856244e+01
2.983000000000000096e-01 1.801809814298032819e+01
3.408999999999999808e-01 2.357664184447005695e+01
3.835000000000000075e-01 2.950611586699778144e+01
4.262000000000000233e-01 3.693485748519970002e+01
4.687999999999999945e-01 4.472525944045447943e+01
5.113999999999999657e-01 5.325715105268701421e+01
5.540000000000000480e-01 6.252963110890480181e+01
5.966000000000000192e-01 7.254189856252803281e+01
6.391999999999999904e-01 8.329237320396130428e+01
6.817999999999999616e-01 9.544194211274775341e+01
7.245000000000000329e-01 1.077205635043854386e+02
7.671000000000000041e-01 1.214647667604061354e+02
8.096999999999999753e-01 1.360211003765353155e+02
8.522999999999999465e-01 1.513919130614669939e+02
8.949000000000000288e-01 1.667021970777213653e+02
9.375000000000000000e-01 1.836496556888405394e+02
9.801999999999999602e-01 2.014214866633809038e+02
1.022799999999999931e+00 2.199770531862899361e+02
1.065399999999999903e+00 2.393348277546673728e+02
1.108000000000000096e+00 2.605620443618571471e+02
1.150600000000000067e+00 2.826646502389847342e+02
1.193200000000000038e+00 3.044893183100707574e+02
1.235800000000000010e+00 3.282925179355169121e+02
1.278499999999999970e+00 3.542246870310921167e+02
1.321099999999999941e+00 3.798001905261393745e+02
1.363699999999999912e+00 4.062339097900243132e+02
1.406300000000000106e+00 4.348767035868307289e+02
1.448900000000000077e+00 4.644497835743641758e+02
1.491500000000000048e+00 4.935140987209537684e+02
1.534200000000000008e+00 5.263976203245558736e+02
1.576799999999999979e+00 5.602494956508469386e+02
1.619399999999999951e+00 5.950859732752513764e+02
1.661999999999999922e+00 6.309142435448752622e+02
1.704599999999999893e+00 6.693483057445043869e+02
1.747200000000000086e+00 7.071556127173871573e+02
1.789900000000000047e+00 7.493940579151644670e+02
1.832500000000000018e+00 7.892056991392835243e+02
1.875099999999999989e+00 8.335411946149080222e+02
1.917699999999999960e+00 8.789845046764551171e+02
1.960299999999999931e+00 9.273708576389300333e+02
2.002899999999999903e+00 9.788260764251224373e+02
2.045500000000000096e+00 1.027607960296527835e+03
2.088200000000000056e+00 1.081473717364935965e+03
2.130799999999999805e+00 1.136492456943831257e+03
2.173399999999999999e+00 1.194748187583568551e+03
2.216000000000000192e+00 1.254260748261724302e+03
2.258599999999999941e+00 1.317143605052382554e+03
2.301200000000000134e+00 1.379159343798974987e+03
2.343900000000000095e+00 1.446862294760560189e+03
2.386499999999999844e+00 1.520339400645647629e+03
2.429100000000000037e+00 1.595282156223165430e+03
2.471699999999999786e+00 1.669357943002943102e+03
2.514299999999999979e+00 1.749512996982627328e+03
2.556900000000000173e+00 1.835929406642305139e+03
2.599499999999999922e+00 1.921523664065848834e+03
2.642199999999999882e+00 2.011171200953225025e+03
2.684800000000000075e+00 2.104797245798191398e+03
2.727399999999999824e+00 2.205076146454064201e+03
2.770000000000000018e+00 2.307064737715811134e+03
2.812600000000000211e+00 2.418529978851635406e+03
2.855199999999999960e+00 2.531844245650514949e+03
2.897899999999999920e+00 2.649720734111529509e+03
2.940500000000000114e+00 2.777445462351658534e+03
2.983099999999999863e+00 2.909892924072660207e+03
3.025700000000000056e+00 3.047123025244622113e+03
3.068299999999999805e+00 3.191959913345714085e+03
3.110899999999999999e+00 3.347397067686862556e+03
3.153500000000000192e+00 3.510763082473745726e+03
3.196200000000000152e+00 3.685216498061422953e+03
3.238799999999999901e+00 3.864852112537785615e+03
3.281400000000000095e+00 4.058668713335943721e+03
3.323999999999999844e+00 4.266919369424847901e+03
3.366600000000000037e+00 4.483854863530030343e+03
3.409199999999999786e+00 4.718606042680606151e+03
3.451900000000000190e+00 4.968600222791871602e+03
3.494499999999999940e+00 5.236816839572887147e+03
3.537100000000000133e+00 5.526739497225036757e+03
3.579699999999999882e+00 5.841789284588648115e+03
3.622300000000000075e+00 6.182331910455860452e+03
3.664899999999999824e+00 6.555050505049283856e+03
3.707500000000000018e+00 6.960262530680655800e+03
3.750199999999999978e+00 7.414705296558103328e+03
3.792800000000000171e+00 7.918481811988385743e+03
3.835399999999999920e+00 8.482114936177391428e+03
3.878000000000000114e+00 9.132473598213478908e+03
3.920599999999999863e+00 9.883609696806452121e+03
3.963200000000000056e+00 1.076953739780721298e+04
4.005899999999999572e+00 1.184520989852280945e+04
4.048499999999999766e+00 1.318567095728976892e+04
4.091099999999999959e+00 1.490454324926776644e+04
4.133700000000000152e+00 1.715789701525848432e+04
4.176300000000000345e+00 2.015215461977258747e+04
4.218899999999999650e+00 2.410609184451420515e+04
4.261599999999999611e+00 2.914756511020038306e+04
4.304199999999999804e+00 3.509457686180978635e+04
4.346799999999999997e+00 4.145800079565442866e+04
4.389400000000000190e+00 4.763183964748193830e+04
4.432000000000000384e+00 5.306790782307159679e+04
4.474599999999999689e+00 5.763336816556408303e+04
4.517199999999999882e+00 6.146169608601820801e+04
4.559899999999999842e+00 6.479210043381918513e+04
4.602500000000000036e+00 6.778800808786822017e+04
4.645100000000000229e+00 7.077133113097301975e+04
4.687700000000000422e+00 7.458262533617812733e+04
4.730299999999999727e+00 7.987981085171479208e+04
4.772899999999999920e+00 8.686629117553852848e+04
4.815599999999999881e+00 9.504455271268569049e+04
4.858200000000000074e+00 1.036941806665805343e+05
4.900800000000000267e+00 1.127637537895917485e+05
4.943399999999999572e+00 1.225763293640545307e+05
4.985999999999999766e+00 1.336182866990512994e+05
5.028599999999999959e+00 1.463219143801004684e+05
5.071200000000000152e+00 1.609146587062984181e+05
5.113900000000000112e+00 1.777769925044432166e+05
5.156500000000000306e+00 1.970502801778896828e+05
5.199099999999999611e+00 2.188370993656407227e+05
5.241699999999999804e+00 2.433845398466689221e+05
5.284299999999999997e+00 2.707960417860761518e+05
5.326900000000000190e+00 2.995214708086869796e+05
5.369600000000000151e+00 3.279641255319400807e+05
5.412200000000000344e+00 3.561961137061277987e+05
5.454799999999999649e+00 3.851117135131413816e+05
5.497399999999999842e+00 4.150387135742605897e+05
5.540000000000000036e+00 4.453536445986208855e+05
5.582600000000000229e+00 4.751067820956484647e+05
5.625200000000000422e+00 5.044135545177026070e+05
5.667900000000000382e+00 5.322779928918948863e+05
5.710499999999999687e+00 5.563712621413315646e+05
5.753099999999999881e+00 5.736287427687150193e+05
5.795700000000000074e+00 5.830242922256959137e+05
5.838300000000000267e+00 5.862428415501866257e+05
5.880899999999999572e+00 5.846946539509667782e+05
5.923600000000000421e+00 5.787378639331435552e+05
5.966199999999999726e+00 5.683265577327050269e+05
6.008799999999999919e+00 5.545891238927621162e+05
6.051400000000000112e+00 5.401410062856323784e+05
6.094000000000000306e+00 5.272791549730278784e+05
6.136599999999999611e+00 5.168814516386353062e+05
6.179199999999999804e+00 5.091563444440506282e+05
6.221899999999999764e+00 5.039106622241451987e+05
6.264499999999999957e+00 5.008683458920728881e+05
6.307100000000000151e+00 4.999816170366750448e+05
6.349700000000000344e+00 5.010622072918803315e+05
6.392299999999999649e+00 5.045402618765213992e+05
6.434899999999999842e+00 5.106544827086181031e+05
6.477599999999999802e+00 5.181133391510391375e+05
6.520199999999999996e+00 5.248047012215503491e+05
6.562800000000000189e+00 5.295905738954418339e+05
6.605400000000000382e+00 5.324835871272977674e+05
6.647999999999999687e+00 5.344193283795535099e+05
6.690599999999999881e+00 5.354927229782923823e+05
6.733200000000000074e+00 5.360865931362132542e+05
6.775900000000000034e+00 5.375360117345907493e+05
6.818500000000000227e+00 5.400824337060392136e+05
6.861100000000000421e+00 5.429162315373383462e+05
6.903699999999999726e+00 5.458411967813395895e+05
6.946299999999999919e+00 5.488592357122207759e+05
6.988900000000000112e+00 5.514345138934922870e+05
7.031600000000000072e+00 5.534822833687821403e+05
7.074200000000000266e+00 5.566261247344480362e+05
7.116799999999999571e+00 5.628772000562682515e+05
7.159399999999999764e+00 5.723835404049471254e+05
7.201999999999999957e+00 5.837599809637514409e+05
7.244600000000000151e+00 5.961073454445637763e+05
7.287300000000000111e+00 6.094357850512528094e+05
7.329900000000000304e+00 6.235604226933228783e+05
7.372499999999999609e+00 6.376313148465540726e+05
7.415099999999999802e+00 6.504440749535904033e+05
7.457699999999999996e+00 6.614813099057471845e+05
7.500300000000000189e+00 6.714231894212637562e+05
7.542900000000000382e+00 6.804325698620972689e+05
7.585600000000000342e+00 6.877841487309355289e+05
7.628199999999999648e+00 6.924734219070269028e+05
7.670799999999999841e+00 6.941051946280405391e+05
7.713400000000000034e+00 6.936064697527477983e+05
7.756000000000000227e+00 6.932355961355391191e+05
7.798600000000000421e+00 6.944095220369697781e+05
7.841300000000000381e+00 6.968017666889721295e+05
7.883899999999999686e+00 6.992315509096932365e+05
7.926499999999999879e+00 7.012630224184949184e+05
7.969100000000000072e+00 7.023471584893248510e+05
8.011699999999999378e+00 7.019919001288296422e+05
8.054299999999999571e+00 6.998033226443482563e+05
8.096899999999999764e+00 6.958265271118889796e+05
8.139599999999999724e+00 6.915874254786762176e+05
8.182199999999999918e+00 6.887105184966513189e+05
8.224800000000000111e+00 6.876747274980006041e+05
8.267400000000000304e+00 6.881876226189973531e+05
8.310000000000000497e+00 6.899917802919900278e+05
8.352600000000000691e+00 6.930974215818350203e+05
8.395300000000000651e+00 6.965550821896294365e+05
8.437900000000000844e+00 6.998356490185688017e+05
8.480499999999999261e+00 7.041405640534507111e+05
8.523099999999999454e+00 7.115966350421152310e+05
8.565699999999999648e+00 7.239104076713629765e+05
8.608299999999999841e+00 7.420538337120336946e+05
8.650900000000000034e+00 7.651374277469963999e+05
8.693599999999999994e+00 7.914095053177920636e+05
8.736200000000000188e+00 8.176148579866891960e+05
8.778800000000000381e+00 8.361006609994976316e+05
8.821400000000000574e+00 8.392615132908746600e+05
8.864000000000000767e+00 8.307527171312073478e+05
8.906599999999999184e+00 8.194340922852458898e+05
8.949299999999999145e+00 8.099143965600428637e+05
8.991899999999999338e+00 8.037689156196389813e+05
9.034499999999999531e+00 8.012863315384451998e+05
9.077099999999999724e+00 8.019595930602886947e+05
9.119699999999999918e+00 8.051462416770631680e+05
9.162300000000000111e+00 8.098516125025547808e+05
9.204900000000000304e+00 8.151630656417277642e+05
9.247600000000000264e+00 8.211270806492869742e+05
9.290200000000000458e+00 8.273327062999089248e+05
9.332800000000000651e+00 8.325665862711936934e+05
9.375400000000000844e+00 8.361581612054362195e+05
9.417999999999999261e+00 8.387643007329946849e+05
9.460599999999999454e+00 8.411285063275943976e+05
9.503299999999999415e+00 8.431515434078284306e+05
9.545899999999999608e+00 8.449076900876756990e+05
9.588499999999999801e+00 8.465084395239972509e+05
9.631099999999999994e+00 8.478836012100867229e+05
9.673700000000000188e+00 8.493763574433254544e+05
9.716300000000000381e+00 8.510697647133963183e+05
9.759000000000000341e+00 8.531674503421292175e+05
9.801600000000000534e+00 8.556365472494836431e+05
9.844200000000000728e+00 8.584321523821740411e+05
9.886799999999999145e+00 8.616699838914501015e+05
9.929399999999999338e+00 8.649878882164063398e+05
9.971999999999999531e+00 8.681733832240690244e+05
1.001459999999999972e+01 8.712888857121132314e+05
1.005729999999999968e+01 8.743059230342174415e+05
1.009989999999999988e+01 8.771646595577289118e+05
1.014250000000000007e+01 8.801813847162128659e+05
1.018510000000000026e+01 8.828486478488651337e+05
1.022770000000000046e+01 8.843568367385920137e+05
1.027030000000000065e+01 8.851084522224294487e+05
1.031300000000000061e+01 8.855996721629550448e+05
1.035560000000000080e+01 8.855942623172281310e+05
1.039819999999999922e+01 8.848698355264778947e+05
1.044079999999999941e+01 8.834762164371983381e+05
1.048339999999999961e+01 8.812283606102858903e+05
1.052599999999999980e+01 8.783010462659430923e+05
1.056859999999999999e+01 8.751065805971139343e+05
1.061129999999999995e+01 8.719792036178156268e+05
1.065390000000000015e+01 8.694754558111183578e+05
1.069650000000000034e+01 8.676676354114962742e+05
1.073910000000000053e+01 8.663829082790396642e+05
1.078170000000000073e+01 8.659790539875263348e+05
1.082429999999999914e+01 8.668037576261159265e+05
1.086700000000000088e+01 8.683128252521553077e+05
1.090959999999999930e+01 8.694079503434174694e+05
1.095219999999999949e+01 8.697249077446730807e+05
1.099479999999999968e+01 8.700837582203838974e+05
1.103739999999999988e+01 8.712636719814700773e+05
1.108000000000000007e+01 8.729697199355158955e+05
1.112260000000000026e+01 8.748172072455623420e+05
1.116530000000000022e+01 8.766504528279121732e+05
1.120790000000000042e+01 8.782323004152786452e+05
1.125050000000000061e+01 8.795923323928114260e+05
1.129310000000000080e+01 8.806220885129229864e+05
1.133569999999999922e+01 8.812906869870449882e+05
1.137829999999999941e+01 8.816095818065006752e+05
1.142099999999999937e+01 8.815835880213251803e+05
1.146359999999999957e+01 8.809503271822161041e+05
1.150619999999999976e+01 8.798021068090394838e+05
1.154879999999999995e+01 8.784876854063100182e+05
1.159140000000000015e+01 8.776168169473870657e+05
1.163400000000000034e+01 8.775874008312292863e+05
1.167660000000000053e+01 8.780143370694649639e+05
1.171930000000000049e+01 8.785495578332286095e+05
1.176190000000000069e+01 8.789555701480911812e+05
1.180450000000000088e+01 8.796183613930335268e+05
1.184709999999999930e+01 8.814482435984814074e+05
1.188969999999999949e+01 8.842884502597658429e+05
1.193229999999999968e+01 8.870719643137308303e+05
1.197499999999999964e+01 8.893137890655122465e+05
1.201759999999999984e+01 8.911567352020589169e+05
1.206020000000000003e+01 8.933584925764469663e+05
1.210280000000000022e+01 8.961178561055571772e+05
1.214540000000000042e+01 8.984698435761861037e+05
1.218800000000000061e+01 8.995654781545151491e+05
1.223070000000000057e+01 8.995280529514438240e+05
1.227330000000000076e+01 8.986847328363474226e+05
1.231589999999999918e+01 8.977259386030368041e+05
1.235849999999999937e+01 8.964859565722215921e+05
1.240109999999999957e+01 8.949102808859287761e+05
1.244369999999999976e+01 8.934072630757634761e+05
1.248629999999999995e+01 8.926316064865336521e+05
1.252899999999999991e+01 8.933429075295906514e+05
1.257160000000000011e+01 8.952064967312994413e+05
1.261420000000000030e+01 8.973272215432089288e+05
1.265680000000000049e+01 8.991167034020603169e+05
1.269940000000000069e+01 9.003453435182794929e+05
1.274200000000000088e+01 9.009002548505935119e+05
1.278470000000000084e+01 9.003293561044571688e+05
1.282729999999999926e+01 8.988310083334048977e+05
1.286989999999999945e+01 8.975768871490738820e+05
1.291249999999999964e+01 8.966106259411569918e+05
1.295509999999999984e+01 8.955408943355139345e+05
1.299770000000000003e+01 8.944285157049187692e+05
1.304030000000000022e+01 8.938524430599256884e+05
1.308300000000000018e+01 8.950589870359321358e+05
1.312560000000000038e+01 8.989387524331313325e+05
1.316820000000000057e+01 9.052083235914158868e+05
1.321080000000000076e+01 9.126526393733982695e+05
1.325339999999999918e+01 9.200088331187289441e+05
1.329599999999999937e+01 9.269258902620926965e+05
1.333869999999999933e+01 9.334970843178131618e+05
1.338129999999999953e+01 9.393834183294351678e+05
1.342389999999999972e+01 9.445539905353642534e+05
1.346649999999999991e+01 9.488697197616253980e+05
1.350910000000000011e+01 9.523794923829019535e+05
1.355170000000000030e+01 9.564748509709858336e+05
1.359430000000000049e+01 9.613761523237789515e+05
1.363700000000000045e+01 9.653677197276928928e+05
1.367960000000000065e+01 9.680430484447643394e+05
1.372220000000000084e+01 9.698361112197749317e+05
1.376479999999999926e+01 9.707463301590584451e+05
1.380739999999999945e+01 9.707435814055583905e+05
1.384999999999999964e+01 9.698913324758213712e+05
1.389269999999999960e+01 9.684705565558058443e+05
1.393529999999999980e+01 9.672731533742618049e+05
1.397789999999999999e+01 9.669073350023543462e+05
1.402050000000000018e+01 9.664666819535943214e+05
1.406310000000000038e+01 9.650656880413773470e+05
1.410570000000000057e+01 9.626284042331043165e+05
1.414830000000000076e+01 9.587308337453965796e+05
1.419100000000000072e+01 9.530079590106398100e+05
1.423359999999999914e+01 9.467769793890905567e+05
1.427619999999999933e+01 9.417100726161301136e+05
1.431879999999999953e+01 9.380255282025365159e+05
1.436139999999999972e+01 9.346275565323791234e+05
1.440399999999999991e+01 9.302402439088093815e+05
1.444669999999999987e+01 9.240683453162371879e+05
1.448930000000000007e+01 9.164173154452282470e+05
1.453190000000000026e+01 9.076737383660093183e+05
1.457450000000000045e+01 8.986453167847731384e+05
1.461710000000000065e+01 8.902165076403492130e+05
1.465970000000000084e+01 8.832252609978003893e+05
1.470229999999999926e+01 8.786700042767606210e+05
1.474499999999999922e+01 8.775445741023359587e+05
1.478759999999999941e+01 8.814096461997303413e+05
1.483019999999999960e+01 8.926492810139021603e+05
1.487279999999999980e+01 9.149378720980784856e+05
1.491539999999999999e+01 9.517399331185242627e+05
1.495800000000000018e+01 1.003272737699844874e+06
1.500070000000000014e+01 1.064268589323817985e+06
1.504330000000000034e+01 1.117597084849424195e+06
1.508590000000000053e+01 1.139313088918076828e+06
1.512850000000000072e+01 1.125941867891252041e+06
1.517109999999999914e+01 1.093843619741288479e+06
1.521369999999999933e+01 1.056573469732827041e+06
1.525639999999999930e+01 1.022700938458740478e+06
1.529899999999999949e+01 9.970605500231498154e+05
1.534159999999999968e+01 9.798278899534259690e+05
1.538419999999999987e+01 9.688903949023666792e+05
1.542680000000000007e+01 9.618617554176603444e+05
1.546940000000000026e+01 9.571755659637773642e+05
1.551200000000000045e+01 9.541529169416037621e+05
1.555470000000000041e+01 9.526067745796153322e+05
1.559730000000000061e+01 9.524260752058331855e+05
1.563990000000000080e+01 9.536891087687064428e+05
1.568249999999999922e+01 9.566498226846284233e+05
1.572509999999999941e+01 9.606073093093410134e+05
1.576769999999999960e+01 9.646767628993580583e+05
1.581039999999999957e+01 9.686387044358514249e+05
1.585299999999999976e+01 9.724687764941847418e+05
1.589559999999999995e+01 9.759556630981651833e+05
1.593820000000000014e+01 9.798089465264591854e+05
1.598080000000000034e+01 9.848827842342613731e+05
1.602339999999999876e+01 9.898236760871282313e+05
1.606599999999999895e+01 9.929035488454477163e+05
1.610869999999999891e+01 9.932325039837113582e+05
1.615129999999999910e+01 9.911593567759013968e+05
1.619389999999999930e+01 9.879260652615737636e+05
1.623649999999999949e+01 9.842835158012168249e+05
1.627909999999999968e+01 9.801733260277506197e+05
1.632169999999999987e+01 9.756398329270635732e+05
1.636439999999999984e+01 9.715610376254443545e+05
1.640700000000000003e+01 9.689379084743283456e+05
1.644960000000000022e+01 9.676821453780909069e+05
1.649220000000000041e+01 9.666524383804379031e+05
1.653480000000000061e+01 9.652838873484620126e+05
1.657740000000000080e+01 9.638525614703973988e+05
1.662000000000000099e+01 9.621410429050084203e+05
1.666270000000000095e+01 9.603480651413192973e+05
1.670530000000000115e+01 9.585909861640245654e+05
1.674790000000000134e+01 9.564392946241655154e+05
1.679050000000000153e+01 9.532226150929571595e+05
1.683310000000000173e+01 9.493413916393957334e+05
1.687569999999999837e+01 9.457678617373516317e+05
1.691839999999999833e+01 9.424089714552856749e+05
1.696099999999999852e+01 9.389097641533579445e+05
