# energy(eV) alpha
0.000000000000000000e+00 0.000000000000000000e+00
3.679999999999999938e-02 2.086893372465060459e+00
7.370000000000000162e-02 8.357798245038360108e+00
1.105000000000000010e-01 1.887579355488385957e+01
1.472999999999999865e-01 3.372390110226816518e+01
1.842000000000000026e-01 5.286698896885732069e+01
2.210000000000000020e-01 7.657638738445261595e+01
2.577999999999999736e-01 1.046386160354708181e+02
2.947000000000000175e-01 1.377507501134217023e+02
3.315000000000000169e-01 1.758036995096706789e+02
3.683000000000000163e-01 2.189823695946442399e+02
4.052000000000000046e-01 2.677937941315570924e+02
4.420000000000000040e-01 3.219979484401713421e+02
4.788000000000000034e-01 3.825007035400720952e+02
5.157000000000000473e-01 4.492893597251176629e+02
5.524999999999999911e-01 5.232191167092495334e+02
5.893000000000000460e-01 6.051659374010802139e+02
6.261999999999999789e-01 6.951947131544955027e+02
6.630000000000000338e-01 7.934182981321177976e+02
6.997999999999999776e-01 9.018227828945261990e+02
7.367000000000000215e-01 1.021084144860077572e+03
7.734999999999999654e-01 1.152604830374741596e+03
8.103000000000000203e-01 1.296578296337399706e+03
8.471999999999999531e-01 1.456210780008226948e+03
8.840000000000000080e-01 1.632009644385619367e+03
9.207999999999999519e-01 1.826935440350204772e+03
9.576999999999999957e-01 2.043574789218872183e+03
9.945000000000000506e-01 2.285456630518079237e+03
1.031300000000000106e+00 2.555552000047874117e+03
1.068200000000000038e+00 2.861609158659313835e+03
1.104999999999999982e+00 3.208063428229766032e+03
1.141799999999999926e+00 3.604404199024428181e+03
1.178700000000000081e+00 4.060780869320849888e+03
1.215500000000000025e+00 4.592079602754750340e+03
1.252299999999999969e+00 5.220284575755008518e+03
1.289199999999999902e+00 5.973263269651775772e+03
1.326000000000000068e+00 6.894536789332590160e+03
1.362800000000000011e+00 8.045103061688840171e+03
1.399699999999999944e+00 9.526520235648413291e+03
1.436500000000000110e+00 1.149576848368833089e+04
1.473300000000000054e+00 1.418834989565566684e+04
1.510099999999999998e+00 1.788733713109204837e+04
1.546999999999999931e+00 2.269252112549377125e+04
1.583800000000000097e+00 2.825293846285679319e+04
1.620600000000000041e+00 3.456958563276413042e+04
1.657499999999999973e+00 4.235779426890281320e+04
1.694299999999999917e+00 5.009707143100359099e+04
1.731100000000000083e+00 5.501689488335329224e+04
1.768000000000000016e+00 5.876074110810532875e+04
1.804799999999999960e+00 6.396742489665900939e+04
1.841599999999999904e+00 7.016585948441212531e+04
1.878500000000000059e+00 7.698195852585993998e+04
1.915300000000000002e+00 8.522003640909113165e+04
1.952099999999999946e+00 9.447707373241001915e+04
1.989000000000000101e+00 1.043543349757964897e+05
2.025799999999999823e+00 1.171130670751745056e+05
2.062600000000000211e+00 1.331298213077707915e+05
2.099499999999999922e+00 1.469663166895638278e+05
2.136299999999999866e+00 1.533425023966887384e+05
2.173099999999999810e+00 1.560828026364571997e+05
2.209999999999999964e+00 1.618461648199726187e+05
2.246799999999999908e+00 1.725991792388972826e+05
2.283599999999999852e+00 1.852929391045927186e+05
2.320500000000000007e+00 1.949099225561130734e+05
2.357299999999999951e+00 1.966530979157119873e+05
2.394099999999999895e+00 1.902245236083258351e+05
2.431000000000000050e+00 1.833633273603439739e+05
2.467799999999999994e+00 1.847369209401637781e+05
2.504599999999999937e+00 1.944605382102444128e+05
2.541500000000000092e+00 2.039137675152762095e+05
2.578300000000000036e+00 2.056711214636052609e+05
2.615099999999999980e+00 2.000883169379625760e+05
2.652000000000000135e+00 1.934185931387696764e+05
2.688800000000000079e+00 1.911950382681111805e+05
2.725600000000000023e+00 1.921319189800162567e+05
2.762500000000000178e+00 1.913210429181543877e+05
2.799300000000000122e+00 1.860920502008433396e+05
2.836100000000000065e+00 1.774154330777563446e+05
2.873000000000000220e+00 1.690487262162319967e+05
2.909800000000000164e+00 1.644319180973810435e+05
2.946600000000000108e+00 1.648023556790476432e+05
2.983499999999999819e+00 1.683394675235863251e+05
3.020300000000000207e+00 1.715106006079504441e+05
3.057100000000000151e+00 1.742318230973731552e+05
3.093999999999999861e+00 1.786802205536419933e+05
3.130799999999999805e+00 1.864914816894380492e+05
3.167600000000000193e+00 1.972013457277608686e+05
3.204499999999999904e+00 2.077303853396981722e+05
3.241299999999999848e+00 2.154282494642069505e+05
3.278099999999999792e+00 2.206120119981848111e+05
3.314999999999999947e+00 2.248658312354967638e+05
3.351799999999999891e+00 2.290875841401169600e+05
3.388599999999999834e+00 2.344627252732749621e+05
3.425499999999999989e+00 2.425499561765494873e+05
3.462299999999999933e+00 2.525859059126871871e+05
3.499099999999999877e+00 2.615972745559581090e+05
3.536000000000000032e+00 2.680218641724657500e+05
3.572799999999999976e+00 2.721431673112216522e+05
3.609599999999999920e+00 2.754526067082313821e+05
3.646500000000000075e+00 2.789420469926258083e+05
3.683300000000000018e+00 2.807474040081059211e+05
3.720099999999999962e+00 2.796061421503772144e+05
3.757000000000000117e+00 2.768914812499317923e+05
3.793800000000000061e+00 2.749599927868731320e+05
3.830600000000000005e+00 2.748813688318556524e+05
3.867500000000000160e+00 2.768459048902549548e+05
3.904300000000000104e+00 2.796363231600961299e+05
3.941100000000000048e+00 2.822855291049403604e+05
3.978000000000000203e+00 2.853500341362554464e+05
4.014800000000000146e+00 2.895634472643255140e+05
4.051599999999999646e+00 2.952262931819669320e+05
4.088499999999999801e+00 3.013711949344711611e+05
4.125300000000000189e+00 3.063258221620441182e+05
4.162099999999999689e+00 3.085127082187294145e+05
4.198999999999999844e+00 3.064281791098642861e+05
4.235800000000000232e+00 3.014480892502620700e+05
4.272599999999999731e+00 2.967740881320103654e+05
4.309499999999999886e+00 2.930673403504688176e+05
4.346300000000000274e+00 2.894439109416757710e+05
4.383099999999999774e+00 2.863978850590955699e+05
4.419900000000000162e+00 2.846221591721142177e+05
4.456800000000000317e+00 2.840974870918788365e+05
4.493599999999999817e+00 2.850599063932652934e+05
4.530400000000000205e+00 2.880167493360139197e+05
4.567300000000000360e+00 2.941430812571912538e+05
4.604099999999999859e+00 3.050372304291746113e+05
4.640900000000000247e+00 3.204916652094049496e+05
4.677800000000000402e+00 3.379736454624835751e+05
4.714599999999999902e+00 3.544237593593744095e+05
4.751400000000000290e+00 3.677555382400261005e+05
4.788299999999999557e+00 3.781463891935454449e+05
4.825099999999999945e+00 3.861414481048046728e+05
4.861900000000000333e+00 3.922755339707228704e+05
4.898799999999999599e+00 3.968444117229402182e+05
4.935599999999999987e+00 3.998336582398770261e+05
4.972400000000000375e+00 4.018804630827067303e+05
5.009299999999999642e+00 4.041810959908050136e+05
5.046100000000000030e+00 4.070039622379979701e+05
5.082900000000000418e+00 4.098137072153485497e+05
5.119799999999999685e+00 4.124379222219468793e+05
5.156600000000000072e+00 4.162754432192022214e+05
5.193399999999999572e+00 4.225594609392405255e+05
5.230299999999999727e+00 4.293958338029070292e+05
5.267100000000000115e+00 4.348042687560350168e+05
5.303899999999999615e+00 4.383002811887211865e+05
5.340799999999999770e+00 4.400623667490360676e+05
5.377600000000000158e+00 4.411607436836762936e+05
5.414399999999999658e+00 4.428287995068966411e+05
5.451299999999999812e+00 4.453777615489404416e+05
5.488100000000000200e+00 4.486050348980512354e+05
5.524899999999999700e+00 4.532229697743817233e+05
5.561799999999999855e+00 4.582954900040294742e+05
5.598600000000000243e+00 4.621180742622335092e+05
5.635399999999999743e+00 4.652332568362446618e+05
5.672299999999999898e+00 4.691808172572280164e+05
5.709100000000000286e+00 4.738515689238691120e+05
5.745899999999999785e+00 4.773247598379498231e+05
5.782799999999999940e+00 4.794712597101025167e+05
5.819600000000000328e+00 4.818091344558722340e+05
5.856399999999999828e+00 4.846146925872375723e+05
5.893299999999999983e+00 4.874916375585105270e+05
5.930100000000000371e+00 4.897270548071888043e+05
5.966899999999999871e+00 4.902540770898850169e+05
6.003800000000000026e+00 4.880410254265138647e+05
6.040600000000000414e+00 4.821116915383138694e+05
6.077399999999999913e+00 4.734028096279342426e+05
6.114300000000000068e+00 4.654826011631166912e+05
6.151099999999999568e+00 4.613946370486587984e+05
6.187899999999999956e+00 4.614981019029627787e+05
6.224800000000000111e+00 4.644909392894085031e+05
6.261599999999999611e+00 4.689691118933425751e+05
6.298399999999999999e+00 4.736179881135991309e+05
6.335300000000000153e+00 4.763486822890741751e+05
6.372099999999999653e+00 4.760021318720678682e+05
6.408900000000000041e+00 4.738139220840187045e+05
6.445800000000000196e+00 4.716238748304512701e+05
6.482599999999999696e+00 4.698618805497383582e+05
6.519400000000000084e+00 4.687912381022208137e+05
6.556300000000000239e+00 4.696059924979163334e+05
6.593099999999999739e+00 4.731183162249883171e+05
6.629900000000000126e+00 4.790268128850747016e+05
6.666800000000000281e+00 4.853866028078236850e+05
6.703599999999999781e+00 4.904794871301039821e+05
6.740400000000000169e+00 4.944696430976815172e+05
6.777300000000000324e+00 4.980981690840782830e+05
6.814099999999999824e+00 5.017555689708362333e+05
6.850900000000000212e+00 5.049592821056955727e+05
6.887800000000000367e+00 5.069355736052982975e+05
6.924599999999999866e+00 5.079971036652034963e+05
6.961400000000000254e+00 5.085857747907630401e+05
6.998300000000000409e+00 5.093818722840654082e+05
7.035099999999999909e+00 5.112491534768177080e+05
7.071900000000000297e+00 5.140353268721711938e+05
7.108799999999999564e+00 5.172939907954726368e+05
7.145599999999999952e+00 5.218304298499001889e+05
7.182400000000000340e+00 5.283758116642440436e+05
7.219299999999999606e+00 5.367926900865215575e+05
7.256099999999999994e+00 5.470420697007561103e+05
7.292900000000000382e+00 5.590205547843078384e+05
7.329699999999999882e+00 5.718282227979371091e+05
7.366600000000000037e+00 5.845374894240066642e+05
7.403400000000000425e+00 5.968351521793073043e+05
7.440199999999999925e+00 6.084098482571702916e+05
7.477100000000000080e+00 6.193905503414877458e+05
7.513899999999999579e+00 6.309907872512578033e+05
7.550699999999999967e+00 6.439393011675649323e+05
7.587600000000000122e+00 6.581746307517697569e+05
7.624399999999999622e+00 6.736900786584962625e+05
7.661200000000000010e+00 6.895288129927229602e+05
7.698100000000000165e+00 7.044695547084815335e+05
7.734899999999999665e+00 7.180928034185498254e+05
7.771700000000000053e+00 7.300166690071061021e+05
7.808600000000000207e+00 7.391135065691309283e+05
7.845399999999999707e+00 7.459184734910338884e+05
7.882200000000000095e+00 7.515784156245667255e+05
7.919100000000000250e+00 7.565552903108481551e+05
7.955899999999999750e+00 7.612941679729828611e+05
7.992700000000000138e+00 7.657043481871101540e+05
8.029600000000000293e+00 7.692273094713032478e+05
8.066399999999999793e+00 7.716486805044458015e+05
8.103199999999999292e+00 7.743575197899462655e+05
8.140100000000000335e+00 7.785668982005902799e+05
8.176899999999999835e+00 7.833874072021322791e+05
8.213699999999999335e+00 7.875076488537408877e+05
8.250600000000000378e+00 7.903677369311777875e+05
8.287399999999999878e+00 7.926330323525216663e+05
8.324199999999999378e+00 7.950671596785448492e+05
8.361100000000000421e+00 7.975150999734157231e+05
8.397899999999999920e+00 7.998113298252158565e+05
8.434699999999999420e+00 8.029711822345063556e+05
8.471600000000000463e+00 8.078413708705879981e+05
8.508399999999999963e+00 8.142950978690333432e+05
8.545199999999999463e+00 8.214433303100883495e+05
8.582100000000000506e+00 8.286467195400533965e+05
8.618900000000000006e+00 8.356222043804842979e+05
8.655699999999999505e+00 8.426166948449289193e+05
8.692600000000000549e+00 8.497743839221943635e+05
8.729400000000000048e+00 8.563565582307266304e+05
8.766199999999999548e+00 8.624833899515633238e+05
8.803100000000000591e+00 8.687481144204324810e+05
8.839900000000000091e+00 8.752308010750879766e+05
8.876699999999999591e+00 8.815526750939351041e+05
8.913600000000000634e+00 8.869044345235608052e+05
8.950400000000000134e+00 8.905717966395744588e+05
8.987199999999999633e+00 8.927301659502376569e+05
9.024100000000000676e+00 8.941432053985483944e+05
9.060900000000000176e+00 8.945175260310107842e+05
9.097699999999999676e+00 8.931393063965431647e+05
9.134600000000000719e+00 8.902640927388002165e+05
9.171400000000000219e+00 8.867038724674035329e+05
9.208199999999999719e+00 8.834185210526621668e+05
9.245100000000000762e+00 8.812569596018939046e+05
9.281900000000000261e+00 8.805258802722670371e+05
9.318699999999999761e+00 8.812642460162180942e+05
9.355600000000000804e+00 8.834380187893571565e+05
9.392400000000000304e+00 8.862571850267553236e+05
9.429199999999999804e+00 8.887735020731149707e+05
9.466100000000000847e+00 8.905780874838753371e+05
9.502900000000000347e+00 8.913544121196155902e+05
9.539699999999999847e+00 8.914731248857857427e+05
9.576599999999999113e+00 8.922000362710161135e+05
9.613400000000000389e+00 8.946170774472773774e+05
9.650199999999999889e+00 8.990713247301618103e+05
9.687099999999999156e+00 9.057743329861010425e+05
9.723900000000000432e+00 9.147053304708906217e+05
9.760699999999999932e+00 9.255771851031931583e+05
9.797599999999999199e+00 9.383076276844667736e+05
9.834400000000000475e+00 9.524991338865568396e+05
9.871199999999999974e+00 9.661770769825455500e+05
9.908099999999999241e+00 9.768948752720658667e+05
9.944900000000000517e+00 9.845500356379601872e+05
9.981700000000000017e+00 9.908097362386938184e+05
1.001859999999999928e+01 9.970682535374306608e+05
1.005540000000000056e+01 1.003442551123692654e+06
1.009220000000000006e+01 1.009609499995040591e+06
1.012909999999999933e+01 1.016401012590061990e+06
1.016590000000000060e+01 1.024754921593791689e+06
1.020270000000000010e+01 1.033952829170403653e+06
1.023949999999999960e+01 1.042750587166816229e+06
1.027640000000000065e+01 1.051901294434298528e+06
1.031320000000000014e+01 1.062152099460512167e+06
1.034999999999999964e+01 1.071856967336822068e+06
1.038690000000000069e+01 1.079495995423276909e+06
1.042370000000000019e+01 1.085157708640146069e+06
1.046049999999999969e+01 1.089386650154921925e+06
1.049740000000000073e+01 1.092224041460407199e+06
1.053420000000000023e+01 1.093251281011733692e+06
1.057099999999999973e+01 1.092555839370843489e+06
1.060790000000000077e+01 1.090836950730040204e+06
1.064470000000000027e+01 1.088556901283360319e+06
1.068149999999999977e+01 1.085646905754663283e+06
1.071840000000000082e+01 1.082106040020820452e+06
1.075520000000000032e+01 1.078237431003499776e+06
1.079199999999999982e+01 1.074056817221413366e+06
1.082890000000000086e+01 1.069681212703662226e+06
1.086570000000000036e+01 1.065816559816935565e+06
1.090249999999999986e+01 1.062589314704942983e+06
1.093939999999999912e+01 1.059949183995225467e+06
1.097620000000000040e+01 1.057665705066540511e+06
1.101299999999999990e+01 1.055619983230181504e+06
1.104989999999999917e+01 1.053844087473854423e+06
1.108670000000000044e+01 1.052187327382691670e+06
1.112349999999999994e+01 1.051126589627668727e+06
1.116039999999999921e+01 1.051785468289928976e+06
1.119720000000000049e+01 1.054169748872871278e+06
1.123399999999999999e+01 1.056792733717986150e+06
1.127089999999999925e+01 1.058786424249947770e+06
1.130770000000000053e+01 1.060473688190607820e+06
1.134450000000000003e+01 1.061736427797027864e+06
1.138139999999999930e+01 1.061912917156939395e+06
1.141820000000000057e+01 1.060782513000526698e+06
1.145500000000000007e+01 1.058518311474496964e+06
1.149189999999999934e+01 1.055680549929329893e+06
1.152870000000000061e+01 1.053016403900401434e+06
1.156550000000000011e+01 1.051157779960337561e+06
1.160239999999999938e+01 1.049945760563368211e+06
1.163920000000000066e+01 1.048634810163832502e+06
1.167600000000000016e+01 1.046714557828296092e+06
1.171289999999999942e+01 1.044803936170987319e+06
1.174970000000000070e+01 1.043763145348750870e+06
1.178650000000000020e+01 1.043492696201564861e+06
1.182339999999999947e+01 1.043058450364974211e+06
1.186020000000000074e+01 1.041906079033241840e+06
1.189700000000000024e+01 1.040007579800252803e+06
1.193389999999999951e+01 1.037719702311990084e+06
1.197070000000000078e+01 1.035647187826049980e+06
1.200750000000000028e+01 1.034294268637746805e+06
1.204439999999999955e+01 1.033377231233332073e+06
1.208120000000000083e+01 1.032390962905460969e+06
1.211800000000000033e+01 1.030958273247695877e+06
1.215489999999999959e+01 1.029198057335528778e+06
1.219170000000000087e+01 1.027071563785827719e+06
1.222850000000000037e+01 1.024089201078856480e+06
1.226539999999999964e+01 1.020405252573898295e+06
1.230219999999999914e+01 1.016281309619648964e+06
1.233900000000000041e+01 1.011480969294715673e+06
1.237589999999999968e+01 1.006028813675523154e+06
1.241269999999999918e+01 1.000761847688385751e+06
1.244950000000000045e+01 9.965956714470760198e+05
1.248639999999999972e+01 9.939895339360014768e+05
1.252319999999999922e+01 9.919822243809675565e+05
1.256000000000000050e+01 9.899276013556413818e+05
1.259689999999999976e+01 9.885297439363506855e+05
1.263369999999999926e+01 9.885041603076186730e+05
1.267050000000000054e+01 9.899336411393884337e+05
1.270739999999999981e+01 9.928741719486488728e+05
1.274419999999999931e+01 9.967599325011039618e+05
1.278100000000000058e+01 1.000706534207684221e+06
1.281789999999999985e+01 1.004093208439727663e+06
1.285469999999999935e+01 1.007171028202964342e+06
1.289150000000000063e+01 1.010898764918010565e+06
1.292839999999999989e+01 1.015841590112462756e+06
1.296519999999999939e+01 1.021650508001726354e+06
1.300200000000000067e+01 1.027800642319062841e+06
1.303889999999999993e+01 1.033090758737271535e+06
1.307569999999999943e+01 1.036799322247689706e+06
1.311250000000000071e+01 1.039390637000640621e+06
1.314930000000000021e+01 1.040755012160025304e+06
1.318619999999999948e+01 1.040824951364835142e+06
1.322300000000000075e+01 1.040958488515720237e+06
1.325980000000000025e+01 1.042636549548923853e+06
1.329669999999999952e+01 1.045715326085469220e+06
1.333350000000000080e+01 1.048321660298964824e+06
1.337030000000000030e+01 1.049325031316410750e+06
1.340719999999999956e+01 1.048516307596800267e+06
1.344400000000000084e+01 1.046451095304220100e+06
1.348080000000000034e+01 1.044452776943745441e+06
1.351769999999999960e+01 1.043004420652919915e+06
1.355450000000000088e+01 1.042599485642901622e+06
1.359130000000000038e+01 1.044862312287650304e+06
1.362819999999999965e+01 1.050133199423775775e+06
1.366499999999999915e+01 1.055436389862817014e+06
1.370180000000000042e+01 1.057862643857360585e+06
1.373869999999999969e+01 1.058522055868959520e+06
1.377549999999999919e+01 1.060153984352215659e+06
1.381230000000000047e+01 1.062842274159873836e+06
1.384919999999999973e+01 1.064734968515359797e+06
1.388599999999999923e+01 1.064831498762208968e+06
1.392280000000000051e+01 1.063767754640765022e+06
1.395969999999999978e+01 1.063058025544484612e+06
1.399649999999999928e+01 1.064036833591360832e+06
1.403330000000000055e+01 1.066344378750839038e+06
1.407019999999999982e+01 1.068573518312611384e+06
1.410699999999999932e+01 1.070153139862995362e+06
1.414380000000000059e+01 1.071440627483697608e+06
1.418069999999999986e+01 1.072801673972517950e+06
1.421749999999999936e+01 1.074971887989477022e+06
1.425430000000000064e+01 1.078054748153558699e+06
1.429119999999999990e+01 1.080709776257241610e+06
1.432799999999999940e+01 1.081846655811638338e+06
1.436480000000000068e+01 1.082453107534953859e+06
1.440169999999999995e+01 1.083795385131965391e+06
1.443849999999999945e+01 1.086122336959147826e+06
1.447530000000000072e+01 1.088856563210883643e+06
1.451219999999999999e+01 1.090762307901983382e+06
1.454899999999999949e+01 1.091625329834918724e+06
1.458580000000000076e+01 1.091753202303117840e+06
1.462270000000000003e+01 1.091532901816560421e+06
1.465949999999999953e+01 1.091272120785803301e+06
