# energy(eV) alpha
0.000000000000000000e+00 0.000000000000000000e+00
3.180000000000000188e-02 2.948495405063675801e-01
6.370000000000000662e-02 1.240284045975226457e+00
9.550000000000000155e-02 2.744782072198295619e+00
1.272999999999999965e-01 4.956769112733809379e+00
1.592000000000000082e-01 7.674189476378280084e+00
1.910000000000000031e-01 1.115374695109042058e+01
2.227999999999999980e-01 1.507429352894748575e+01
2.545999999999999930e-01 1.981901791240481714e+01
2.864999999999999769e-01 2.521909521024253209e+01
3.183000000000000274e-01 3.096260690850017028e+01
3.501000000000000223e-01 3.761711495147739726e+01
3.820000000000000062e-01 4.492827762944330061e+01
4.138000000000000012e-01 5.287236263636933842e+01
4.455999999999999961e-01 6.104784927886423418e+01
4.774999999999999800e-01 7.070467942443461595e+01
5.092999999999999750e-01 8.010588788230610646e+01
5.411000000000000254e-01 9.058918794343767900e+01
5.729999999999999538e-01 1.022591067501932116e+02
6.048000000000000043e-01 1.140505971160053065e+02
6.366000000000000547e-01 1.264781512184123216e+02
6.683999999999999941e-01 1.401590397984806771e+02
7.003000000000000336e-01 1.539067229682256368e+02
7.320999999999999730e-01 1.689430811714564413e+02
7.639000000000000234e-01 1.846693969697082025e+02
7.957999999999999519e-01 2.003714683903212688e+02
8.276000000000000023e-01 2.166808105281865267e+02
8.594000000000000528e-01 2.344057466625322093e+02
8.912999999999999812e-01 2.528419376720883065e+02
9.231000000000000316e-01 2.727790460874024348e+02
9.548999999999999710e-01 2.934541392239845550e+02
9.868000000000000105e-01 3.139852719352268764e+02
1.018599999999999950e+00 3.370311444952855027e+02
1.050400000000000000e+00 3.589309513597563068e+02
1.082200000000000051e+00 3.824960182582029802e+02
1.114100000000000090e+00 4.068147193289301526e+02
1.145899999999999919e+00 4.328726653146794092e+02
1.177699999999999969e+00 4.586235418446865424e+02
1.209600000000000009e+00 4.851263601882663465e+02
1.241400000000000059e+00 5.145755985821087961e+02
1.273200000000000109e+00 5.448408650574207286e+02
1.305099999999999927e+00 5.747807037441176590e+02
1.336899999999999977e+00 6.066446337275144742e+02
1.368700000000000028e+00 6.380725906098198266e+02
1.400600000000000067e+00 6.728488376714425385e+02
1.432399999999999896e+00 7.084364465882641753e+02
1.464199999999999946e+00 7.435382609703634671e+02
1.496099999999999985e+00 7.794857183414981137e+02
1.527900000000000036e+00 8.189361434189830788e+02
1.559700000000000086e+00 8.592813304843608648e+02
1.591499999999999915e+00 9.005123162996756037e+02
1.623399999999999954e+00 9.426728410952092645e+02
1.655200000000000005e+00 9.871537758232402666e+02
1.687000000000000055e+00 1.031028332782665302e+03
1.718900000000000095e+00 1.077375940024264537e+03
1.750699999999999923e+00 1.127727150020285080e+03
1.782499999999999973e+00 1.177484493515801887e+03
1.814400000000000013e+00 1.229877505608908223e+03
1.846200000000000063e+00 1.283202163710204104e+03
1.877999999999999892e+00 1.337511334977763454e+03
1.909899999999999931e+00 1.394570355818868165e+03
1.941699999999999982e+00 1.454318515813901058e+03
1.973500000000000032e+00 1.516890502793374708e+03
2.005300000000000082e+00 1.578771259116411102e+03
2.037199999999999900e+00 1.643581802806949554e+03
2.068999999999999950e+00 1.713073844478513365e+03
2.100800000000000001e+00 1.781876850261923437e+03
2.132699999999999818e+00 1.855642569582113083e+03
2.164499999999999869e+00 1.928611408383006619e+03
2.196299999999999919e+00 2.006601683486655702e+03
2.228200000000000180e+00 2.089826875225366621e+03
2.259999999999999787e+00 2.170250711350830443e+03
2.291799999999999837e+00 2.259947614081613665e+03
2.323700000000000099e+00 2.349060643390593214e+03
2.355500000000000149e+00 2.441419124727184226e+03
2.387300000000000200e+00 2.537210463653048919e+03
2.419099999999999806e+00 2.636444367168256122e+03
2.451000000000000068e+00 2.741451399577010307e+03
2.482800000000000118e+00 2.847787564396035123e+03
2.514600000000000168e+00 2.959895543131244722e+03
2.546499999999999986e+00 3.078053054455888287e+03
2.578300000000000036e+00 3.199859703619807533e+03
2.610100000000000087e+00 3.325475124682723617e+03
2.641999999999999904e+00 3.459637627427249299e+03
2.673799999999999955e+00 3.595314352648072600e+03
2.705600000000000005e+00 3.737288091593739409e+03
2.737499999999999822e+00 3.888103381765839458e+03
2.769299999999999873e+00 4.042912510852895139e+03
2.801099999999999923e+00 4.206615415929262781e+03
2.832899999999999974e+00 4.379434967063676595e+03
2.864799999999999791e+00 4.559149166668370526e+03
2.896599999999999842e+00 4.745499068844708745e+03
2.928399999999999892e+00 4.946162700644567849e+03
2.960300000000000153e+00 5.151550191949971122e+03
2.992100000000000204e+00 5.371346518420573375e+03
3.023899999999999810e+00 5.603434804348935359e+03
3.055800000000000072e+00 5.845470507180786626e+03
3.087600000000000122e+00 6.104988217592589535e+03
3.119400000000000173e+00 6.377112288598594205e+03
3.151299999999999990e+00 6.672651490227692193e+03
3.183100000000000041e+00 6.978201621866271125e+03
3.214900000000000091e+00 7.309998901154587656e+03
3.246700000000000141e+00 7.665511240729219935e+03
3.278599999999999959e+00 8.045168729703314057e+03
3.310400000000000009e+00 8.456799076936958954e+03
3.342200000000000060e+00 8.903482348182413261e+03
3.374099999999999877e+00 9.391203786399926685e+03
3.405899999999999928e+00 9.927857963150674550e+03
3.437699999999999978e+00 1.051944813087496732e+04
3.469599999999999795e+00 1.118310952260970407e+04
3.501399999999999846e+00 1.193507939121399795e+04
3.533199999999999896e+00 1.280127531626697055e+04
3.565100000000000158e+00 1.381862978881329400e+04
3.596900000000000208e+00 1.503503880125807882e+04
3.628699999999999815e+00 1.653356331118757225e+04
3.660600000000000076e+00 1.840738875967971398e+04
3.692400000000000126e+00 2.074014817897717876e+04
3.724200000000000177e+00 2.354032452565381755e+04
3.755999999999999783e+00 2.666999910271973931e+04
3.787900000000000045e+00 2.988506869038821605e+04
3.819700000000000095e+00 3.296381684248378588e+04
3.851500000000000146e+00 3.588068119662945537e+04
3.883399999999999963e+00 3.868040573175877944e+04
3.915200000000000014e+00 4.140471188127730420e+04
3.947000000000000064e+00 4.405892074101347680e+04
3.978899999999999881e+00 4.667801355912815052e+04
4.010699999999999932e+00 4.940011306649706239e+04
4.042500000000000426e+00 5.241587080711258750e+04
4.074399999999999800e+00 5.587376166753187135e+04
4.106200000000000294e+00 5.993887865027446242e+04
4.137999999999999901e+00 6.486294702472160134e+04
4.169800000000000395e+00 7.084695524269316229e+04
4.201699999999999768e+00 7.797823719556412834e+04
4.233500000000000263e+00 8.642636950464211986e+04
4.265299999999999869e+00 9.660805624169045768e+04
4.297200000000000131e+00 1.088028318159865594e+05
4.328999999999999737e+00 1.230537806104943447e+05
4.360800000000000232e+00 1.393702316406003083e+05
4.392699999999999605e+00 1.576996045590735448e+05
4.424500000000000099e+00 1.777810972214611538e+05
4.456299999999999706e+00 1.990118125177144539e+05
4.488199999999999967e+00 2.206405374263598642e+05
4.519999999999999574e+00 2.419314475860508683e+05
4.551800000000000068e+00 2.623335157887786627e+05
4.583599999999999675e+00 2.814749126508692862e+05
4.615499999999999936e+00 2.991791825775094330e+05
4.647300000000000431e+00 3.155116935819205828e+05
4.679100000000000037e+00 3.307503144294528756e+05
4.711000000000000298e+00 3.452370771160418517e+05
4.742799999999999905e+00 3.594535471639926545e+05
4.774600000000000399e+00 3.738680012363082496e+05
4.806499999999999773e+00 3.886418045424005250e+05
4.838300000000000267e+00 4.037002185893720598e+05
4.870099999999999874e+00 4.188588547603837796e+05
4.902000000000000135e+00 4.338585260884859599e+05
4.933799999999999741e+00 4.483135251423687441e+05
4.965600000000000236e+00 4.617774283805920859e+05
4.997399999999999842e+00 4.739446942248594132e+05
5.029300000000000104e+00 4.847596716382660088e+05
5.061099999999999710e+00 4.942356036651913892e+05
5.092900000000000205e+00 5.024033413168573752e+05
5.124799999999999578e+00 5.092649317223292892e+05
5.156600000000000072e+00 5.148432799378921045e+05
5.188399999999999679e+00 5.190868253881205455e+05
5.220299999999999940e+00 5.218965783937174710e+05
5.252100000000000435e+00 5.235326174892000272e+05
5.283900000000000041e+00 5.247955281925085001e+05
5.315800000000000303e+00 5.266802176964631071e+05
5.347599999999999909e+00 5.301955897750790464e+05
5.379400000000000404e+00 5.364730061418106779e+05
5.411200000000000010e+00 5.466423182604343165e+05
5.443100000000000271e+00 5.617904137151045725e+05
5.474899999999999878e+00 5.824818629496932263e+05
5.506700000000000372e+00 6.073896781888633268e+05
5.538599999999999746e+00 6.332708904848453822e+05
5.570400000000000240e+00 6.567235206335184630e+05
5.602199999999999847e+00 6.733740851327365963e+05
5.634100000000000108e+00 6.797312496907843743e+05
5.665899999999999714e+00 6.771774912060555071e+05
5.697700000000000209e+00 6.708594427027244819e+05
5.729599999999999582e+00 6.650665865794179263e+05
5.761400000000000077e+00 6.614906142823852133e+05
5.793199999999999683e+00 6.602566841231663711e+05
5.825099999999999945e+00 6.608810756697264733e+05
5.856900000000000439e+00 6.627808236251395429e+05
5.888700000000000045e+00 6.655714283613635926e+05
5.920499999999999652e+00 6.688594575475414749e+05
5.952399999999999913e+00 6.720599341503863689e+05
5.984200000000000408e+00 6.746784855735478923e+05
6.016000000000000014e+00 6.767021950763053028e+05
6.047900000000000276e+00 6.782971082938075997e+05
6.079699999999999882e+00 6.795478108300236054e+05
6.111500000000000377e+00 6.807428506015414605e+05
6.143399999999999750e+00 6.824793714899505721e+05
6.175200000000000244e+00 6.854866879331340315e+05
6.206999999999999851e+00 6.903343789754392346e+05
6.238900000000000112e+00 6.971949424035184784e+05
6.270699999999999719e+00 7.055761205477308249e+05
6.302500000000000213e+00 7.143287697116981726e+05
6.334299999999999820e+00 7.222175898016440915e+05
6.366200000000000081e+00 7.285019650100863073e+05
6.397999999999999687e+00 7.329337095793231856e+05
6.429800000000000182e+00 7.358402204716533888e+05
6.461700000000000443e+00 7.379003687404621160e+05
6.493500000000000050e+00 7.397475718979506055e+05
6.525299999999999656e+00 7.416925249618861126e+05
6.557199999999999918e+00 7.435430193644562969e+05
6.589000000000000412e+00 7.450689360357272672e+05
6.620800000000000018e+00 7.462019129991135560e+05
6.652700000000000280e+00 7.469048039929351071e+05
6.684499999999999886e+00 7.474258017936983379e+05
6.716300000000000381e+00 7.483000901740153786e+05
6.748099999999999987e+00 7.498879892377371434e+05
6.780000000000000249e+00 7.521651128470632248e+05
6.811799999999999855e+00 7.548809336209289031e+05
6.843600000000000350e+00 7.579837353943298804e+05
6.875499999999999723e+00 7.617154052678573644e+05
6.907300000000000217e+00 7.662345353844526689e+05
6.939099999999999824e+00 7.714432999440858839e+05
6.971000000000000085e+00 7.768477464604906272e+05
7.002799999999999692e+00 7.818309522035326809e+05
7.034600000000000186e+00 7.862058343508605612e+05
7.066499999999999559e+00 7.900455488460131455e+05
7.098300000000000054e+00 7.937082182797912974e+05
7.130099999999999660e+00 7.975002525207255967e+05
7.161900000000000155e+00 8.013211563236664515e+05
7.193800000000000416e+00 8.048786983045884408e+05
7.225600000000000023e+00 8.079314352225250332e+05
7.257399999999999629e+00 8.104570219172354555e+05
7.289299999999999891e+00 8.126311879557907814e+05
7.321100000000000385e+00 8.147921744268126786e+05
7.352899999999999991e+00 8.169693246107180603e+05
7.384800000000000253e+00 8.188334397360137664e+05
7.416599999999999859e+00 8.201929889495937387e+05
7.448400000000000354e+00 8.210901531524909660e+05
7.480299999999999727e+00 8.215783999175840290e+05
7.512100000000000222e+00 8.216966313903951086e+05
7.543899999999999828e+00 8.214800083278629463e+05
7.575700000000000323e+00 8.209831358459843323e+05
7.607599999999999696e+00 8.202504465573577909e+05
7.639400000000000190e+00 8.193792285476099933e+05
7.671199999999999797e+00 8.184830016404667404e+05
7.703100000000000058e+00 8.175081896634786390e+05
7.734899999999999665e+00 8.162928600393445231e+05
7.766700000000000159e+00 8.149369619554999517e+05
7.798600000000000421e+00 8.136735755951753817e+05
7.830400000000000027e+00 8.126146224603452720e+05
7.862199999999999633e+00 8.118111481965632411e+05
7.894099999999999895e+00 8.111799448454801459e+05
7.925900000000000389e+00 8.103634080533431843e+05
7.957699999999999996e+00 8.090628632130874321e+05
7.989600000000000257e+00 8.072163413472884567e+05
8.021399999999999864e+00 8.051143484079790069e+05
8.053200000000000358e+00 8.030731905773361214e+05
8.085000000000000853e+00 8.012932374900224386e+05
8.116899999999999338e+00 8.000007279734690674e+05
8.148699999999999832e+00 7.991661002177413320e+05
8.180500000000000327e+00 7.985265909480594564e+05
8.212400000000000588e+00 7.975906245786675718e+05
8.244199999999999307e+00 7.961992288163284538e+05
8.275999999999999801e+00 7.946506249975844985e+05
8.307900000000000063e+00 7.933344924977706978e+05
8.339700000000000557e+00 7.924168102856314508e+05
8.371499999999999275e+00 7.918624034894943470e+05
8.403399999999999537e+00 7.916437408371077618e+05
8.435200000000000031e+00 7.919836038942360319e+05
8.467000000000000526e+00 7.930891092425495153e+05
8.498799999999999244e+00 7.948941358007509261e+05
8.530699999999999505e+00 7.972461211926012766e+05
8.562500000000000000e+00 8.001350228631570935e+05
8.594300000000000495e+00 8.038516780553407734e+05
8.626200000000000756e+00 8.092463710432570660e+05
8.657999999999999474e+00 8.176290034996683244e+05
8.689799999999999969e+00 8.303871095937016653e+05
8.721700000000000230e+00 8.471469885246384656e+05
8.753500000000000725e+00 8.635799986384309595e+05
8.785299999999999443e+00 8.734010927847953280e+05
8.817199999999999704e+00 8.741340078468220308e+05
8.849000000000000199e+00 8.689045805607078364e+05
8.880800000000000693e+00 8.622121923000392271e+05
8.912599999999999412e+00 8.564001950848717242e+05
8.944499999999999673e+00 8.519903216593237594e+05
8.976300000000000168e+00 8.487912939902495127e+05
9.008100000000000662e+00 8.465394158860576572e+05
9.039999999999999147e+00 8.450136636591851711e+05
9.071799999999999642e+00 8.439780683712535538e+05
9.103600000000000136e+00 8.432832346091248328e+05
9.135500000000000398e+00 8.430423433206876507e+05
9.167299999999999116e+00 8.434646053536175750e+05
9.199099999999999611e+00 8.443880102674718946e+05
9.230999999999999872e+00 8.452200624134185491e+05
9.262800000000000367e+00 8.453361482128386851e+05
9.294600000000000861e+00 8.444662406925511314e+05
9.326399999999999579e+00 8.427341643982203677e+05
9.358299999999999841e+00 8.405094997428799979e+05
9.390100000000000335e+00 8.380406052894775057e+05
9.421900000000000830e+00 8.357082758759227581e+05
9.453799999999999315e+00 8.338154614169267006e+05
9.485599999999999810e+00 8.324111677429263946e+05
9.517400000000000304e+00 8.314610926371249370e+05
9.549300000000000566e+00 8.308868187989775324e+05
9.581099999999999284e+00 8.303071660793240881e+05
9.612899999999999778e+00 8.292369300383691443e+05
9.644800000000000040e+00 8.275261357600513147e+05
9.676600000000000534e+00 8.253712774157207459e+05
9.708399999999999253e+00 8.230597864211290143e+05
9.740199999999999747e+00 8.207202314451719867e+05
9.772100000000000009e+00 8.185030462149615632e+05
9.803900000000000503e+00 8.164123251935298322e+05
9.835699999999999221e+00 8.143880570815417450e+05
9.867599999999999483e+00 8.121814116034157341e+05
9.899399999999999977e+00 8.094733051796921063e+05
9.931200000000000472e+00 8.061060358589256648e+05
9.963100000000000733e+00 8.022843613095782930e+05
9.994899999999999451e+00 7.982583032375776675e+05
1.002669999999999995e+01 7.941105347158098593e+05
1.005860000000000021e+01 7.899605262396275066e+05
1.009040000000000070e+01 7.859168476334300358e+05
1.012219999999999942e+01 7.820993077545202104e+05
1.015409999999999968e+01 7.785476882704054005e+05
1.018590000000000018e+01 7.753899040506298188e+05
1.021770000000000067e+01 7.727822967031908920e+05
1.024949999999999939e+01 7.707589574134912109e+05
1.028139999999999965e+01 7.692983056682783645e+05
1.031320000000000014e+01 7.684193073965191143e+05
1.034500000000000064e+01 7.680628070390187204e+05
1.037689999999999912e+01 7.678981525310279103e+05
1.040869999999999962e+01 7.676210100570020732e+05
1.044050000000000011e+01 7.670198914852523012e+05
1.047240000000000038e+01 7.660902855310869636e+05
1.050420000000000087e+01 7.648205664990539663e+05
1.053599999999999959e+01 7.632813343585324474e+05
1.056789999999999985e+01 7.616911751322585624e+05
1.059970000000000034e+01 7.601339701804422075e+05
1.063150000000000084e+01 7.585348099732922856e+05
1.066329999999999956e+01 7.566462786336755380e+05
1.069519999999999982e+01 7.543621577268750407e+05
1.072700000000000031e+01 7.518122015788221033e+05
1.075880000000000081e+01 7.491252005073925247e+05
1.079069999999999929e+01 7.463299028803764377e+05
1.082249999999999979e+01 7.435919516934577841e+05
1.085430000000000028e+01 7.410137834990300471e+05
1.088620000000000054e+01 7.384856685909820953e+05
1.091799999999999926e+01 7.356584420591569506e+05
1.094979999999999976e+01 7.324375688466492575e+05
1.098170000000000002e+01 7.291374642121370416e+05
1.101350000000000051e+01 7.260391869394006208e+05
1.104529999999999923e+01 7.232829299102281220e+05
1.107709999999999972e+01 7.208594818561667344e+05
1.110899999999999999e+01 7.187914609682275914e+05
1.114080000000000048e+01 7.170902441927781329e+05
1.117259999999999920e+01 7.156426878506292123e+05
1.120449999999999946e+01 7.143557566066086292e+05
1.123629999999999995e+01 7.130097927848239196e+05
1.126810000000000045e+01 7.117192011056874180e+05
1.130000000000000071e+01 7.108431964901617030e+05
1.133179999999999943e+01 7.107298031537442002e+05
1.136359999999999992e+01 7.111297827684391523e+05
1.139550000000000018e+01 7.113402964074498741e+05
1.142730000000000068e+01 7.110240267874059500e+05
1.145909999999999940e+01 7.100883788522065151e+05
1.149089999999999989e+01 7.086164372855721740e+05
1.152280000000000015e+01 7.067308251663640840e+05
1.155460000000000065e+01 7.046968855818788288e+05
1.158639999999999937e+01 7.026742180345550878e+05
1.161829999999999963e+01 7.007254472061392153e+05
1.165010000000000012e+01 6.990526119127639104e+05
1.168190000000000062e+01 6.976412314366091741e+05
1.171380000000000088e+01 6.962000697525031865e+05
1.174559999999999960e+01 6.944634065581567120e+05
1.177740000000000009e+01 6.924006873211873462e+05
1.180930000000000035e+01 6.900071494413129985e+05
1.184110000000000085e+01 6.874233450020002201e+05
1.187289999999999957e+01 6.849428444743473083e+05
1.190470000000000006e+01 6.826883024314548820e+05
1.193660000000000032e+01 6.804120677099481691e+05
1.196840000000000082e+01 6.779036022861454403e+05
1.200019999999999953e+01 6.752319680902598193e+05
1.203209999999999980e+01 6.725838967883324949e+05
1.206390000000000029e+01 6.701507999397526728e+05
1.209570000000000078e+01 6.682109897835028823e+05
1.212759999999999927e+01 6.666989729220173322e+05
1.215939999999999976e+01 6.653550004539474612e+05
1.219120000000000026e+01 6.639439648708252935e+05
1.222310000000000052e+01 6.625445141589913983e+05
1.225489999999999924e+01 6.614918924903647276e+05
1.228669999999999973e+01 6.611278424759485060e+05
1.231859999999999999e+01 6.616336226725792512e+05
1.235040000000000049e+01 6.632753888092096895e+05
1.238219999999999921e+01 6.658840579879945144e+05
1.241399999999999970e+01 6.691467672288371250e+05
1.244589999999999996e+01 6.726917159473218489e+05
1.247770000000000046e+01 6.764576220541640650e+05
1.250949999999999918e+01 6.806228142031724565e+05
1.254139999999999944e+01 6.854201406620392809e+05
1.257319999999999993e+01 6.907383916935946327e+05
1.260500000000000043e+01 6.965089440305379685e+05
1.263690000000000069e+01 7.025598209834691370e+05
1.266869999999999941e+01 7.084647250599312829e+05
