# energy(eV) alpha
0.000000000000000000e+00 0.000000000000000000e+00
3.180000000000000188e-02 6.490027598164842537e-01
6.350000000000000089e-02 2.483827270052413105e+00
9.529999999999999583e-02 5.753157008458633648e+00
1.270000000000000018e-01 1.014940764649479199e+01
1.587999999999999967e-01 1.579373939001539995e+01
1.905999999999999917e-01 2.284092161022173428e+01
2.222999999999999976e-01 3.097896945238278832e+01
2.540999999999999925e-01 4.079881497802338686e+01
2.858999999999999875e-01 5.171989922087831815e+01
3.175999999999999934e-01 6.390912045440562395e+01
3.493999999999999884e-01 7.769836981471392789e+01
3.810999999999999943e-01 9.280073414680140331e+01
4.128999999999999893e-01 1.092592981582532587e+02
4.446999999999999842e-01 1.270475291191185647e+02
4.763999999999999901e-01 1.469399874577271135e+02
5.081999999999999851e-01 1.674311442313407952e+02
5.400000000000000355e-01 1.901535346167189005e+02
5.716999999999999860e-01 2.147441488486667254e+02
6.035000000000000364e-01 2.403304551460998368e+02
6.351999999999999869e-01 2.678196832206697309e+02
6.670000000000000373e-01 2.968060924769792450e+02
6.987999999999999767e-01 3.284243110956365967e+02
7.305000000000000382e-01 3.615405118749708890e+02
7.622999999999999776e-01 3.968903731829151980e+02
7.940000000000000391e-01 4.331035708171597776e+02
8.257999999999999785e-01 4.729780250216255126e+02
8.576000000000000290e-01 5.138033632274924685e+02
8.892999999999999794e-01 5.584175005026731924e+02
9.211000000000000298e-01 6.040742364694664275e+02
9.528999999999999693e-01 6.538180474355683600e+02
9.846000000000000307e-01 7.053283328332552173e+02
1.016399999999999970e+00 7.587178748499951553e+02
1.048100000000000032e+00 8.173417151184454497e+02
1.079900000000000082e+00 8.771279050974892471e+02
1.111699999999999910e+00 9.416196497591055277e+02
1.143399999999999972e+00 1.008074442313167651e+03
1.175200000000000022e+00 1.080558528543195735e+03
1.207000000000000073e+00 1.155254780417408028e+03
1.238699999999999912e+00 1.236144750406145022e+03
1.270499999999999963e+00 1.319484622059581625e+03
1.302200000000000024e+00 1.409355005920040412e+03
1.334000000000000075e+00 1.504012403320271460e+03
1.365799999999999903e+00 1.603478960957230129e+03
1.397499999999999964e+00 1.711161395876393271e+03
1.429300000000000015e+00 1.824119527077656812e+03
1.461000000000000076e+00 1.944581709081059898e+03
1.492799999999999905e+00 2.074250095058924671e+03
1.524599999999999955e+00 2.212055927849676664e+03
1.556300000000000017e+00 2.359291714378605320e+03
1.588100000000000067e+00 2.517859259505205046e+03
1.619899999999999896e+00 2.687897742263888631e+03
1.651599999999999957e+00 2.872213547633400594e+03
1.683400000000000007e+00 3.071591799027599791e+03
1.715100000000000069e+00 3.286020520129492979e+03
1.746899999999999897e+00 3.523264751947786408e+03
1.778699999999999948e+00 3.780964509097142127e+03
1.810400000000000009e+00 4.065153777088179595e+03
1.842200000000000060e+00 4.379817464592333636e+03
1.874000000000000110e+00 4.735904275434338160e+03
1.905699999999999950e+00 5.135678090626193807e+03
1.937500000000000000e+00 5.591334877743321158e+03
1.969200000000000061e+00 6.120509488807218077e+03
2.000999999999999890e+00 6.745773197104561405e+03
2.032799999999999940e+00 7.502207918666793375e+03
2.064499999999999780e+00 8.427763510993063392e+03
2.096299999999999830e+00 9.569865236567486136e+03
2.128099999999999881e+00 1.092546378967316923e+04
2.159800000000000164e+00 1.240361727503840666e+04
2.191600000000000215e+00 1.391435972056412902e+04
2.223300000000000054e+00 1.547043773573871476e+04
2.255100000000000104e+00 1.725553346843299005e+04
2.286900000000000155e+00 1.963265304035456211e+04
2.318599999999999994e+00 2.298235805592569159e+04
2.350400000000000045e+00 2.750956408770018606e+04
2.382099999999999884e+00 3.309601844752930629e+04
2.413899999999999935e+00 3.911777034316279605e+04
2.445699999999999985e+00 4.440038261908615095e+04
2.477399999999999824e+00 4.802567460546095390e+04
2.509199999999999875e+00 5.033120873841284629e+04
2.540999999999999925e+00 5.283263812643486017e+04
2.572700000000000209e+00 5.725511514326866018e+04
2.604499999999999815e+00 6.481357966833542014e+04
2.636200000000000099e+00 7.566147734130460594e+04
2.668000000000000149e+00 8.829537423595097789e+04
2.699800000000000200e+00 9.967137057237501722e+04
2.731500000000000039e+00 1.067277672352491209e+05
2.763300000000000090e+00 1.087449113927635044e+05
2.795100000000000140e+00 1.086766367579778453e+05
2.826799999999999979e+00 1.105626312439598551e+05
2.858600000000000030e+00 1.161810420968766848e+05
2.890299999999999869e+00 1.248597053097942699e+05
2.922099999999999920e+00 1.343616480935589934e+05
2.953899999999999970e+00 1.420159262620476075e+05
2.985599999999999810e+00 1.469000904887552897e+05
3.017399999999999860e+00 1.506992792596041400e+05
3.049100000000000144e+00 1.558975031778452394e+05
3.080900000000000194e+00 1.634817659079463920e+05
3.112699999999999800e+00 1.732124318228467891e+05
3.144400000000000084e+00 1.842751540599348955e+05
3.176200000000000134e+00 1.944209986059916846e+05
3.208000000000000185e+00 2.009281852505672141e+05
3.239700000000000024e+00 2.030569733732902387e+05
3.271500000000000075e+00 2.026120904314046493e+05
3.303199999999999914e+00 2.020693708301050938e+05
3.334999999999999964e+00 2.034362129514155968e+05
3.366800000000000015e+00 2.076313203091117030e+05
3.398499999999999854e+00 2.139631000528781151e+05
3.430299999999999905e+00 2.207112572854633327e+05
3.462099999999999955e+00 2.264887575927374128e+05
3.493799999999999795e+00 2.310716962576438382e+05
3.525599999999999845e+00 2.347990316652959737e+05
3.557300000000000129e+00 2.375502833550195210e+05
3.589100000000000179e+00 2.394875220615884755e+05
3.620899999999999785e+00 2.418670752722902107e+05
3.652600000000000069e+00 2.457541642454383255e+05
3.684400000000000119e+00 2.511630802855757647e+05
3.716099999999999959e+00 2.573849736952160019e+05
3.747900000000000009e+00 2.629820892457662849e+05
3.779700000000000060e+00 2.662215910873513785e+05
3.811399999999999899e+00 2.669074426763145020e+05
3.843199999999999950e+00 2.662128039743716363e+05
3.875000000000000000e+00 2.650215384671848151e+05
3.906699999999999839e+00 2.635497517462844262e+05
3.938499999999999890e+00 2.622366099409822491e+05
3.970200000000000173e+00 2.613339025248707039e+05
4.001999999999999780e+00 2.609389788316540653e+05
4.033800000000000274e+00 2.611628440658932086e+05
4.065500000000000114e+00 2.613183823957162094e+05
4.097299999999999720e+00 2.602210753392114711e+05
4.129100000000000215e+00 2.576351266501766804e+05
4.160800000000000054e+00 2.540868138700652635e+05
4.192599999999999660e+00 2.502009549214298313e+05
4.224300000000000388e+00 2.470543813452278846e+05
4.256099999999999994e+00 2.453460447066985653e+05
4.287899999999999601e+00 2.449791991240063508e+05
4.319600000000000328e+00 2.457472750087010500e+05
4.351399999999999935e+00 2.475854223713600077e+05
4.383099999999999774e+00 2.506096304189468210e+05
4.414900000000000269e+00 2.547908110112503637e+05
4.446699999999999875e+00 2.595061559454467497e+05
4.478399999999999714e+00 2.635402342074766639e+05
4.510200000000000209e+00 2.656911341751190485e+05
4.541999999999999815e+00 2.657751143578868941e+05
4.573699999999999655e+00 2.648112077297238284e+05
4.605500000000000149e+00 2.643918488203783054e+05
4.637199999999999989e+00 2.657340899512515170e+05
4.668999999999999595e+00 2.690592015293951263e+05
4.700800000000000090e+00 2.739153348940222641e+05
4.732499999999999929e+00 2.801836225735106855e+05
4.764300000000000423e+00 2.882400038724964252e+05
4.796100000000000030e+00 2.980888595460265642e+05
4.827799999999999869e+00 3.089472803252880112e+05
4.859600000000000364e+00 3.198399002107342239e+05
4.891300000000000203e+00 3.302357268756590202e+05
4.923099999999999810e+00 3.402262249278295203e+05
4.954900000000000304e+00 3.500671200670200051e+05
4.986600000000000144e+00 3.596807081779728178e+05
5.018399999999999750e+00 3.683034696103410679e+05
5.050099999999999589e+00 3.748395735966653447e+05
5.081900000000000084e+00 3.788065280971521279e+05
5.113699999999999690e+00 3.811533235947397188e+05
5.145400000000000418e+00 3.837068430801911163e+05
5.177200000000000024e+00 3.874581889804172679e+05
5.208999999999999631e+00 3.920513813961535343e+05
5.240700000000000358e+00 3.964053909360085963e+05
5.272499999999999964e+00 3.996984216745292651e+05
5.304199999999999804e+00 4.024802862241358962e+05
5.336000000000000298e+00 4.064058196590879816e+05
5.367799999999999905e+00 4.125820247005731799e+05
5.399499999999999744e+00 4.208480389534275746e+05
5.431300000000000239e+00 4.304696544661683147e+05
5.463099999999999845e+00 4.407867566685564816e+05
5.494799999999999685e+00 4.516769010897644330e+05
5.526600000000000179e+00 4.634342641977795865e+05
5.558300000000000018e+00 4.760384062142181210e+05
5.590099999999999625e+00 4.889122765241679735e+05
5.621900000000000119e+00 5.009822484533793177e+05
5.653599999999999959e+00 5.114760028726765886e+05
5.685399999999999565e+00 5.204641378844662686e+05
5.717200000000000060e+00 5.282483451122060651e+05
5.748899999999999899e+00 5.343176651150408434e+05
5.780700000000000394e+00 5.380770695777599467e+05
5.812400000000000233e+00 5.399610743779839249e+05
5.844199999999999839e+00 5.408488322588122683e+05
5.876000000000000334e+00 5.407401082390805241e+05
5.907700000000000173e+00 5.390009169980308507e+05
5.939499999999999780e+00 5.353468128772394266e+05
5.971199999999999619e+00 5.303106803821836365e+05
6.003000000000000114e+00 5.248572322912730742e+05
6.034799999999999720e+00 5.192606982895721449e+05
6.066499999999999559e+00 5.132752739863785100e+05
6.098300000000000054e+00 5.070725336200131569e+05
6.130099999999999660e+00 5.012444758849057835e+05
6.161800000000000388e+00 4.958762076331315329e+05
6.193599999999999994e+00 4.904699384145237855e+05
6.225299999999999834e+00 4.846767147263902007e+05
6.257100000000000328e+00 4.786971729875813471e+05
6.288899999999999935e+00 4.729645377724307473e+05
6.320599999999999774e+00 4.681776984378168127e+05
6.352400000000000269e+00 4.648956069053973188e+05
6.384199999999999875e+00 4.630388886088903528e+05
6.415899999999999714e+00 4.622340284424435231e+05
6.447700000000000209e+00 4.622714020541792270e+05
6.479400000000000048e+00 4.632147722392203286e+05
6.511199999999999655e+00 4.652187819130656426e+05
6.543000000000000149e+00 4.683399099491596571e+05
6.574699999999999989e+00 4.724634311298102839e+05
6.606499999999999595e+00 4.772909149419921450e+05
6.638200000000000323e+00 4.826034810630119173e+05
6.669999999999999929e+00 4.881339181669084355e+05
6.701800000000000423e+00 4.929336282887762645e+05
6.733500000000000263e+00 4.956698143564969068e+05
6.765299999999999869e+00 4.959285634727353463e+05
6.797100000000000364e+00 4.940300846552159637e+05
6.828800000000000203e+00 4.905044604319608188e+05
6.860599999999999810e+00 4.865624637646444025e+05
6.892299999999999649e+00 4.835496355864762445e+05
6.924100000000000144e+00 4.822136310570516507e+05
6.955899999999999750e+00 4.822852825549155823e+05
6.987599999999999589e+00 4.829308967737776693e+05
7.019400000000000084e+00 4.835268591120651108e+05
7.051199999999999690e+00 4.841938159832280944e+05
7.082900000000000418e+00 4.857732655742002535e+05
7.114700000000000024e+00 4.892615770441137720e+05
7.146399999999999864e+00 4.950967861235263990e+05
7.178200000000000358e+00 5.033045367709751008e+05
7.209999999999999964e+00 5.135229091248526820e+05
7.241699999999999804e+00 5.249728933150629746e+05
7.273500000000000298e+00 5.368468122847574996e+05
7.305200000000000138e+00 5.483760961750480346e+05
7.336999999999999744e+00 5.588354547807340277e+05
7.368800000000000239e+00 5.679203943243814865e+05
7.400500000000000078e+00 5.756781792294469196e+05
7.432299999999999685e+00 5.824349809993725503e+05
7.464100000000000179e+00 5.888756632895680377e+05
7.495800000000000018e+00 5.959283661542366026e+05
7.527599999999999625e+00 6.041791742766967509e+05
7.559300000000000352e+00 6.135714480159470113e+05
7.591099999999999959e+00 6.234060391668790253e+05
7.622899999999999565e+00 6.326627818232533755e+05
7.654600000000000293e+00 6.405624625545925228e+05
7.686399999999999899e+00 6.469717238711152459e+05
7.718200000000000394e+00 6.524138184771456290e+05
7.749900000000000233e+00 6.574557053151994478e+05
7.781699999999999839e+00 6.621640832289628452e+05
7.813399999999999679e+00 6.662937010381900473e+05
7.845200000000000173e+00 6.701390170518505620e+05
7.876999999999999780e+00 6.742965165193547728e+05
7.908699999999999619e+00 6.794098161027025199e+05
7.940500000000000114e+00 6.861196448756383033e+05
7.972199999999999953e+00 6.946126021389075322e+05
8.003999999999999559e+00 7.042880160129709402e+05
8.035800000000000054e+00 7.140697197277906816e+05
8.067500000000000782e+00 7.230600234675166430e+05
8.099299999999999500e+00 7.308718539640166564e+05
8.131099999999999994e+00 7.375552929071239196e+05
8.162800000000000722e+00 7.437236155783497961e+05
8.194599999999999440e+00 7.498691009592292830e+05
8.226300000000000168e+00 7.561982450830616290e+05
8.258100000000000662e+00 7.629915851853599306e+05
8.289899999999999380e+00 7.705687142695302609e+05
8.321600000000000108e+00 7.789674713676820975e+05
8.353400000000000603e+00 7.877620367678728653e+05
8.385199999999999321e+00 7.964960804617591202e+05
8.416900000000000048e+00 8.052548096670231316e+05
8.448700000000000543e+00 8.142524940350003308e+05
8.480399999999999494e+00 8.229101602705732221e+05
8.512199999999999989e+00 8.304086818597995443e+05
8.544000000000000483e+00 8.366814673201021506e+05
8.575699999999999434e+00 8.421964756147643784e+05
8.607499999999999929e+00 8.475978021242796676e+05
8.639200000000000657e+00 8.537127007421039743e+05
8.670999999999999375e+00 8.609151416474545840e+05
8.702799999999999869e+00 8.689387355642078910e+05
8.734500000000000597e+00 8.771345475951016415e+05
8.766299999999999315e+00 8.849219822659422643e+05
8.798099999999999810e+00 8.920978505516736768e+05
8.829800000000000537e+00 8.983522878202331485e+05
8.861599999999999255e+00 9.031272430535622407e+05
8.893299999999999983e+00 9.059485853343943600e+05
8.925100000000000477e+00 9.070168414850204717e+05
8.956899999999999196e+00 9.069027298184918473e+05
8.988599999999999923e+00 9.060965699387245113e+05
9.020400000000000418e+00 9.049548195327701978e+05
9.052199999999999136e+00 9.039453833612354938e+05
9.083899999999999864e+00 9.035679177160101244e+05
9.115700000000000358e+00 9.039488468264071271e+05
9.147399999999999309e+00 9.047971264889852609e+05
9.179199999999999804e+00 9.054214276581408922e+05
9.211000000000000298e+00 9.052220107285229024e+05
9.242699999999999250e+00 9.040191438803919591e+05
9.274499999999999744e+00 9.022329792607427808e+05
9.306300000000000239e+00 9.004983682760130614e+05
9.337999999999999190e+00 8.992437741119527491e+05
9.369799999999999685e+00 8.985277452161896508e+05
9.401500000000000412e+00 8.979968341223353054e+05
9.433299999999999130e+00 8.973631891716403188e+05
9.465099999999999625e+00 8.965333916207113070e+05
9.496800000000000352e+00 8.956369208226404153e+05
9.528600000000000847e+00 8.948244414350492880e+05
9.560299999999999798e+00 8.940560940153372940e+05
9.592100000000000293e+00 8.933575939464789117e+05
9.623900000000000787e+00 8.925374143477660837e+05
9.655599999999999739e+00 8.913611613028431311e+05
9.687400000000000233e+00 8.899516549032767070e+05
9.719200000000000728e+00 8.885943158697220497e+05
9.750899999999999679e+00 8.875049535133588361e+05
9.782700000000000173e+00 8.870153237226728816e+05
9.814399999999999125e+00 8.873578692587695550e+05
9.846199999999999619e+00 8.885732985276855761e+05
9.878000000000000114e+00 8.906416709482028382e+05
9.909700000000000841e+00 8.932961482565227197e+05
9.941499999999999559e+00 8.961657138371646870e+05
9.973300000000000054e+00 8.993978648931304924e+05
1.000500000000000078e+01 9.036880555984145030e+05
1.003679999999999950e+01 9.090335590491682524e+05
1.006850000000000023e+01 9.146667308180204127e+05
1.010030000000000072e+01 9.200071851235235808e+05
1.013209999999999944e+01 9.253089017010250827e+05
1.016380000000000017e+01 9.307610571536800126e+05
1.019560000000000066e+01 9.360178561915704049e+05
1.022729999999999961e+01 9.408433036473596003e+05
1.025910000000000011e+01 9.453582347968772519e+05
1.029090000000000060e+01 9.498714033978218213e+05
1.032259999999999955e+01 9.547438100182821508e+05
1.035440000000000005e+01 9.601730902779303724e+05
1.038620000000000054e+01 9.658754518447385635e+05
1.041789999999999949e+01 9.710319991488310043e+05
1.044969999999999999e+01 9.751370661620224128e+05
1.048140000000000072e+01 9.780660550302596530e+05
1.051319999999999943e+01 9.800546115976822330e+05
1.054499999999999993e+01 9.812702010054358980e+05
1.057670000000000066e+01 9.818204088612464257e+05
1.060849999999999937e+01 9.820176280714706518e+05
1.064029999999999987e+01 9.819123846490939613e+05
1.067200000000000060e+01 9.813320964656117139e+05
1.070379999999999932e+01 9.803448946051230887e+05
1.073550000000000004e+01 9.792887483178905677e+05
1.076730000000000054e+01 9.785733363445963478e+05
1.079909999999999926e+01 9.782002032348244684e+05
1.083079999999999998e+01 9.779514966056725243e+05
1.086260000000000048e+01 9.775898333528987132e+05
1.089429999999999943e+01 9.770383459489356028e+05
1.092609999999999992e+01 9.762916774516165024e+05
1.095790000000000042e+01 9.756893624410144985e+05
1.098959999999999937e+01 9.754163187636476941e+05
1.102139999999999986e+01 9.752503523108081426e+05
1.105320000000000036e+01 9.746263129923323868e+05
1.108489999999999931e+01 9.731889273115590913e+05
1.111669999999999980e+01 9.712163696492965100e+05
1.114840000000000053e+01 9.691908384329041000e+05
1.118019999999999925e+01 9.675128639360280940e+05
1.121199999999999974e+01 9.664282274812028045e+05
1.124370000000000047e+01 9.660916676575224847e+05
1.127549999999999919e+01 9.662500926653619390e+05
1.130729999999999968e+01 9.662427945552357705e+05
1.133900000000000041e+01 9.656063528353807051e+05
1.137079999999999913e+01 9.644137096180467634e+05
1.140249999999999986e+01 9.632656641403832473e+05
1.143430000000000035e+01 9.627520897337258793e+05
1.146610000000000085e+01 9.631503240639639553e+05
1.149779999999999980e+01 9.647809756964093540e+05
1.152960000000000029e+01 9.676122462597822305e+05
1.156129999999999924e+01 9.712228811986058718e+05
1.159309999999999974e+01 9.747131166617776034e+05
1.162490000000000023e+01 9.771341623208560050e+05
1.165659999999999918e+01 9.783079089515762171e+05
1.168839999999999968e+01 9.791763468099578749e+05
1.172020000000000017e+01 9.806851815707184142e+05
1.175189999999999912e+01 9.826017890834198333e+05
1.178369999999999962e+01 9.843607273660973879e+05
1.181540000000000035e+01 9.859394121898758458e+05
1.184720000000000084e+01 9.877904556915209396e+05
1.187899999999999956e+01 9.899615395211118739e+05
1.191070000000000029e+01 9.921556060912905959e+05
1.194250000000000078e+01 9.941291386815328151e+05
1.197429999999999950e+01 9.954607849586401135e+05
1.200600000000000023e+01 9.960761649163214024e+05
1.203780000000000072e+01 9.965412571850789245e+05
1.206949999999999967e+01 9.971357441645531217e+05
1.210130000000000017e+01 9.977067607779615792e+05
1.213310000000000066e+01 9.981335064843546133e+05
1.216479999999999961e+01 9.983116852552788332e+05
1.219660000000000011e+01 9.978680519996718504e+05
1.222830000000000084e+01 9.965223385352347977e+05
1.226009999999999955e+01 9.943028960622824961e+05
1.229190000000000005e+01 9.913427454433160601e+05
1.232360000000000078e+01 9.879681003751412500e+05
1.235539999999999949e+01 9.848330655899492558e+05
1.238719999999999999e+01 9.821772154461031314e+05
1.241890000000000072e+01 9.798163243221734883e+05
1.245069999999999943e+01 9.778416388627085835e+05
1.248240000000000016e+01 9.764838390307071386e+05
1.251420000000000066e+01 9.760880616268897429e+05
1.254599999999999937e+01 9.770409381805828307e+05
1.257770000000000010e+01 9.795293590783160180e+05
1.260950000000000060e+01 9.833387401113328524e+05
1.264129999999999932e+01 9.877625773622737033e+05
