# energy(eV) alpha
0.000000000000000000e+00 0.000000000000000000e+00
4.490000000000000241e-02 4.623173087324574104e-01
8.980000000000000482e-02 1.849202982926854144e+00
1.346999999999999864e-01 4.034356288651687272e+00
1.794999999999999929e-01 7.391596468751276738e+00
2.243999999999999884e-01 1.133936811563458491e+01
2.692999999999999838e-01 1.662992678317663220e+01
3.141999999999999793e-01 2.263279124623829475e+01
3.590999999999999748e-01 2.955663166818050058e+01
4.040000000000000258e-01 3.702314700873186837e+01
4.489000000000000212e-01 4.616428980141600391e+01
4.938000000000000167e-01 5.538385052189525481e+01
5.385999999999999677e-01 6.643008505115653861e+01
5.835000000000000187e-01 7.848531150286223124e+01
6.283999999999999586e-01 9.095087225812689269e+01
6.733000000000000096e-01 1.049548865915255789e+02
7.181999999999999496e-01 1.199521639630121683e+02
7.631000000000000005e-01 1.352257083465751180e+02
8.080000000000000515e-01 1.529113431808692098e+02
8.528999999999999915e-01 1.708675227192076136e+02
8.977000000000000535e-01 1.897860445757186483e+02
9.425999999999999934e-01 2.097025912508313468e+02
9.875000000000000444e-01 2.315124961111960999e+02
1.032399999999999984e+00 2.534160743837730649e+02
1.077299999999999924e+00 2.772895171149027078e+02
1.122200000000000086e+00 3.022089125114089825e+02
1.167100000000000026e+00 3.281700424310384392e+02
1.211899999999999977e+00 3.562648610842761627e+02
1.256799999999999917e+00 3.843339524049408737e+02
1.301700000000000079e+00 4.158435027938621147e+02
1.346600000000000019e+00 4.472903790640473858e+02
1.391499999999999959e+00 4.811198208095545397e+02
1.436399999999999899e+00 5.147984919914667898e+02
1.481300000000000061e+00 5.509287222767640060e+02
1.526200000000000001e+00 5.896275221183440181e+02
1.570999999999999952e+00 6.280648167802886519e+02
1.615899999999999892e+00 6.691750073434491242e+02
1.660800000000000054e+00 7.130250304717030758e+02
1.705699999999999994e+00 7.565961133381325681e+02
1.750599999999999934e+00 8.045790921626038426e+02
1.795500000000000096e+00 8.522575900360211563e+02
1.840400000000000036e+00 9.045611188793851625e+02
1.885199999999999987e+00 9.547741154368604839e+02
1.930099999999999927e+00 1.011554666641067570e+03
1.975000000000000089e+00 1.067992268174792571e+03
2.019899999999999807e+00 1.129467030169461850e+03
2.064799999999999969e+00 1.192445797830108404e+03
2.109700000000000131e+00 1.258830812928524665e+03
2.154599999999999849e+00 1.324807650915990962e+03
2.199500000000000011e+00 1.396215780009222499e+03
2.244299999999999962e+00 1.471183325008119255e+03
2.289200000000000124e+00 1.547854108579964759e+03
2.334099999999999842e+00 1.630353124840811006e+03
2.379000000000000004e+00 1.714593416955531438e+03
2.423900000000000166e+00 1.800561583790828536e+03
2.468799999999999883e+00 1.894868504711426340e+03
2.513700000000000045e+00 1.991030639313571555e+03
2.558600000000000207e+00 2.091361968028825686e+03
2.603400000000000158e+00 2.198122278686898881e+03
2.648299999999999876e+00 2.311700437963037075e+03
2.693200000000000038e+00 2.424966601667930718e+03
2.738100000000000200e+00 2.547507140988443552e+03
2.782999999999999918e+00 2.677100600988828774e+03
2.827900000000000080e+00 2.813947922863319036e+03
2.872799999999999798e+00 2.955644120003430089e+03
2.917600000000000193e+00 3.107231763472691000e+03
2.962499999999999911e+00 3.263976498821290079e+03
3.007400000000000073e+00 3.433699566815786966e+03
3.052299999999999791e+00 3.611364532239440905e+03
3.097199999999999953e+00 3.799768841216621695e+03
3.142100000000000115e+00 4.001844271549937730e+03
3.186999999999999833e+00 4.215095036091537622e+03
3.231899999999999995e+00 4.445236373568817726e+03
3.276699999999999946e+00 4.689603537310804313e+03
3.321600000000000108e+00 4.951538637593886051e+03
3.366499999999999826e+00 5.234041738847176930e+03
3.411399999999999988e+00 5.537415558593587775e+03
3.456300000000000150e+00 5.870707720868565048e+03
3.501199999999999868e+00 6.234391085799113171e+03
3.546100000000000030e+00 6.637688207494731614e+03
3.590899999999999981e+00 7.087126939599582329e+03
3.635800000000000143e+00 7.595628529706662448e+03
3.680699999999999861e+00 8.179052812802317931e+03
3.725600000000000023e+00 8.872282076777215480e+03
3.770500000000000185e+00 9.698730959008040372e+03
3.815399999999999903e+00 1.063556499748453462e+04
3.860300000000000065e+00 1.166671659105460276e+04
3.905199999999999783e+00 1.297724501944044096e+04
3.950000000000000178e+00 1.476177757714894324e+04
3.994899999999999896e+00 1.704977515412696812e+04
4.039799999999999613e+00 1.966640029207132102e+04
4.084699999999999775e+00 2.265837952688771111e+04
4.129599999999999937e+00 2.617301239994554999e+04
4.174500000000000099e+00 3.001564087188474514e+04
4.219400000000000261e+00 3.343774961944053939e+04
4.264300000000000423e+00 3.607545640671609726e+04
4.309099999999999930e+00 3.872579228771005728e+04
4.354000000000000092e+00 4.277140756398707163e+04
4.398900000000000254e+00 4.899391836639906978e+04
4.443800000000000416e+00 5.665032774368781975e+04
4.488699999999999690e+00 6.478166925894348969e+04
4.533599999999999852e+00 7.330973274144841707e+04
4.578500000000000014e+00 8.296088265810000303e+04
4.623300000000000409e+00 9.435971526628638094e+04
4.668199999999999683e+00 1.070609117330515437e+05
4.713099999999999845e+00 1.208905998408883606e+05
4.758000000000000007e+00 1.355340231429851556e+05
4.802900000000000169e+00 1.503171317460912396e+05
4.847800000000000331e+00 1.654727419085066067e+05
4.892699999999999605e+00 1.822962232080251852e+05
4.937599999999999767e+00 2.004442926850865479e+05
4.982400000000000162e+00 2.176260384719173308e+05
5.027300000000000324e+00 2.331585924863786204e+05
5.072199999999999598e+00 2.483425620973807236e+05
5.117099999999999760e+00 2.637216621748960461e+05
5.161999999999999922e+00 2.804658663904658752e+05
5.206900000000000084e+00 2.988200015929306392e+05
5.251800000000000246e+00 3.176038094783881097e+05
5.296599999999999753e+00 3.354410489046028233e+05
5.341499999999999915e+00 3.490090226964537287e+05
5.386400000000000077e+00 3.569514200973905972e+05
5.431300000000000239e+00 3.612280971919377334e+05
5.476200000000000401e+00 3.641764654223292600e+05
5.521099999999999675e+00 3.678930329283600440e+05
5.565999999999999837e+00 3.739584737140897196e+05
5.610899999999999999e+00 3.832157155690607615e+05
5.655700000000000394e+00 3.959667773926610244e+05
5.700599999999999667e+00 4.109234455602498492e+05
5.745499999999999829e+00 4.256462071676342748e+05
5.790399999999999991e+00 4.388053351699880441e+05
5.835300000000000153e+00 4.502146010106774629e+05
5.880200000000000315e+00 4.618239953381788800e+05
5.925099999999999589e+00 4.766850343312305049e+05
5.969999999999999751e+00 4.943637091444121324e+05
6.014800000000000146e+00 5.109595045152250677e+05
6.059700000000000308e+00 5.246964052081810078e+05
6.104599999999999582e+00 5.385780847002365626e+05
6.149499999999999744e+00 5.545776333196631167e+05
6.194399999999999906e+00 5.710387028725496493e+05
6.239300000000000068e+00 5.869473317413708428e+05
6.284200000000000230e+00 6.025389852715273155e+05
6.328999999999999737e+00 6.182010965447364142e+05
6.373899999999999899e+00 6.346472103043615352e+05
6.418800000000000061e+00 6.515098383070876589e+05
6.463700000000000223e+00 6.677855433405496879e+05
6.508600000000000385e+00 6.824360516181408893e+05
6.553499999999999659e+00 6.960391150784121128e+05
6.598399999999999821e+00 7.098975233588441042e+05
6.643299999999999983e+00 7.243588716586648952e+05
6.688100000000000378e+00 7.371226532917652512e+05
6.732999999999999652e+00 7.455056877137074480e+05
6.777899999999999814e+00 7.496667740715299733e+05
6.822799999999999976e+00 7.514048562786292750e+05
6.867700000000000138e+00 7.524393925561511423e+05
6.912600000000000300e+00 7.548182581749021774e+05
6.957499999999999574e+00 7.593406631866246462e+05
7.002299999999999969e+00 7.650048896039004903e+05
7.047200000000000131e+00 7.705283671011925908e+05
7.092100000000000293e+00 7.751440227057165466e+05
7.136999999999999567e+00 7.790930961708923569e+05
7.181899999999999729e+00 7.832098512390530668e+05
7.226799999999999891e+00 7.879412267519931775e+05
7.271700000000000053e+00 7.927768495892902138e+05
7.316600000000000215e+00 7.970310539411052596e+05
7.361399999999999721e+00 7.999744910709505202e+05
7.406299999999999883e+00 8.018237817245017504e+05
7.451200000000000045e+00 8.038018756447868655e+05
7.496100000000000207e+00 8.065921550225878600e+05
7.541000000000000369e+00 8.104264518300194759e+05
7.585899999999999643e+00 8.146111404956850456e+05
7.630799999999999805e+00 8.187877879466173472e+05
7.675699999999999967e+00 8.228792552633698797e+05
7.720500000000000362e+00 8.267432699296093779e+05
7.765399999999999636e+00 8.306378561698523117e+05
7.810299999999999798e+00 8.346037338999025524e+05
7.855199999999999960e+00 8.382742094147790922e+05
7.900100000000000122e+00 8.413583585395802511e+05
7.945000000000000284e+00 8.441140413409483153e+05
7.989899999999999558e+00 8.470125573820249410e+05
8.034700000000000841e+00 8.493418260199810611e+05
8.079599999999999227e+00 8.506582493139130529e+05
8.124499999999999389e+00 8.513115889465458458e+05
8.169399999999999551e+00 8.502903450437522260e+05
8.214299999999999713e+00 8.474242661897504004e+05
8.259199999999999875e+00 8.448434386354711605e+05
8.304100000000000037e+00 8.436662663998197531e+05
8.349000000000000199e+00 8.433053873907162342e+05
8.393800000000000594e+00 8.428623638380593620e+05
8.438700000000000756e+00 8.418938314677269664e+05
8.483599999999999142e+00 8.395878921988935908e+05
8.528499999999999304e+00 8.366945456397428643e+05
8.573399999999999466e+00 8.349073042053575628e+05
8.618299999999999628e+00 8.330516250412390800e+05
8.663199999999999790e+00 8.302495590973525541e+05
8.708000000000000185e+00 8.271420399598189397e+05
8.752900000000000347e+00 8.241948113905992359e+05
8.797800000000000509e+00 8.228892004263022682e+05
8.842700000000000671e+00 8.237656129376577446e+05
8.887600000000000833e+00 8.255367276157824090e+05
8.932499999999999218e+00 8.260288272563928040e+05
8.977399999999999380e+00 8.251463367862318410e+05
9.022299999999999542e+00 8.236815716982275480e+05
9.067099999999999937e+00 8.207971103794451337e+05
9.112000000000000099e+00 8.168999351878140587e+05
9.156900000000000261e+00 8.130481399951217463e+05
9.201800000000000423e+00 8.095571725308329333e+05
9.246700000000000585e+00 8.058441046172433998e+05
9.291600000000000747e+00 8.010401956469215220e+05
9.336499999999999133e+00 7.950027807772349333e+05
9.381399999999999295e+00 7.887595427690878278e+05
9.426199999999999690e+00 7.833547219538210193e+05
9.471099999999999852e+00 7.796943474135975121e+05
9.516000000000000014e+00 7.781556002992448630e+05
9.560900000000000176e+00 7.772792793655580608e+05
9.605800000000000338e+00 7.753485703707474750e+05
9.650700000000000500e+00 7.723496726220769342e+05
9.695600000000000662e+00 7.699809059448960470e+05
9.740399999999999281e+00 7.691231292325450340e+05
9.785299999999999443e+00 7.691936088702883571e+05
9.830199999999999605e+00 7.698398274866705760e+05
9.875099999999999767e+00 7.714995697200276190e+05
9.919999999999999929e+00 7.740410609680588823e+05
9.964900000000000091e+00 7.765996648592907004e+05
1.000980000000000025e+01 7.775606711986573646e+05
1.005470000000000041e+01 7.763002015839153901e+05
1.009950000000000081e+01 7.738647959606871009e+05
1.014439999999999920e+01 7.707947532555825310e+05
1.018929999999999936e+01 7.680345605888669379e+05
1.023419999999999952e+01 7.667926398343996843e+05
1.027909999999999968e+01 7.672418286894825287e+05
1.032399999999999984e+01 7.690227370701121399e+05
1.036890000000000001e+01 7.721278807784415549e+05
1.041370000000000040e+01 7.765427415772192180e+05
1.045860000000000056e+01 7.816389538572528400e+05
1.050350000000000072e+01 7.858801769402471837e+05
1.054840000000000089e+01 7.881982352012158372e+05
1.059329999999999927e+01 7.898770559067944996e+05
1.063819999999999943e+01 7.918300542993270792e+05
1.068309999999999960e+01 7.935667759160703281e+05
1.072799999999999976e+01 7.950785050622407580e+05
1.077280000000000015e+01 7.972725900483516743e+05
1.081770000000000032e+01 7.995293535470025381e+05
1.086260000000000048e+01 8.008238075813928153e+05
1.090750000000000064e+01 8.006143339341288665e+05
1.095240000000000080e+01 7.990632049251216231e+05
1.099729999999999919e+01 7.973860765451650368e+05
1.104219999999999935e+01 7.970353556744023226e+05
1.108709999999999951e+01 7.985259787445710972e+05
1.113189999999999991e+01 8.011477598281381652e+05
1.117680000000000007e+01 8.035128667552407132e+05
1.122170000000000023e+01 8.057680096233704826e+05
1.126660000000000039e+01 8.089949136787450407e+05
1.131150000000000055e+01 8.117669548323304625e+05
1.135640000000000072e+01 8.125812207752391696e+05
1.140130000000000088e+01 8.127100274527458241e+05
1.144609999999999950e+01 8.152280288511279505e+05
1.149099999999999966e+01 8.208798255775474245e+05
1.153589999999999982e+01 8.284561508377777645e+05
1.158079999999999998e+01 8.359196621840973385e+05
1.162570000000000014e+01 8.406626855216318509e+05
1.167060000000000031e+01 8.416858524031196721e+05
1.171550000000000047e+01 8.410070649611696135e+05
1.176040000000000063e+01 8.409455872058563400e+05
1.180519999999999925e+01 8.426367626982736401e+05
1.185009999999999941e+01 8.448651447718061972e+05
1.189499999999999957e+01 8.463375765614244156e+05
1.193989999999999974e+01 8.471487961965025170e+05
1.198479999999999990e+01 8.479245860829907469e+05
1.202970000000000006e+01 8.491881943521834910e+05
1.207460000000000022e+01 8.519874900723978644e+05
1.211940000000000062e+01 8.564086519831605256e+05
1.216430000000000078e+01 8.611502279348914744e+05
1.220919999999999916e+01 8.656232491304703290e+05
1.225409999999999933e+01 8.698429655365875224e+05
1.229899999999999949e+01 8.755971368398849154e+05
1.234389999999999965e+01 8.851840455689034425e+05
1.238879999999999981e+01 8.980610291513550328e+05
1.243369999999999997e+01 9.125249630964421667e+05
1.247850000000000037e+01 9.275275032353992574e+05
1.252340000000000053e+01 9.414129110218188725e+05
1.256830000000000069e+01 9.521784848271091469e+05
1.261320000000000086e+01 9.606073701687521534e+05
1.265809999999999924e+01 9.705535241599214496e+05
1.270299999999999940e+01 9.840866114551313221e+05
1.274789999999999957e+01 1.000780438799230964e+06
1.279279999999999973e+01 1.020369824040317675e+06
1.283760000000000012e+01 1.042011293017895543e+06
1.288250000000000028e+01 1.062449123282750836e+06
1.292740000000000045e+01 1.079020939424884273e+06
1.297230000000000061e+01 1.092745524297286756e+06
1.301720000000000077e+01 1.105534229037269251e+06
1.306209999999999916e+01 1.117308781070234254e+06
1.310699999999999932e+01 1.125779661890895572e+06
1.315179999999999971e+01 1.129171218878327170e+06
1.319669999999999987e+01 1.129178285185215762e+06
1.324160000000000004e+01 1.131403714439790929e+06
1.328650000000000020e+01 1.138672801346771419e+06
1.333140000000000036e+01 1.149083357819420984e+06
1.337630000000000052e+01 1.163089142283696216e+06
1.342120000000000068e+01 1.181005403422506060e+06
1.346610000000000085e+01 1.202243327394610271e+06
1.351089999999999947e+01 1.225939057342564221e+06
1.355579999999999963e+01 1.249981406594713917e+06
1.360069999999999979e+01 1.272359227722154930e+06
1.364559999999999995e+01 1.292327547162831761e+06
1.369050000000000011e+01 1.308635574324097019e+06
1.373540000000000028e+01 1.321977639057591325e+06
1.378030000000000044e+01 1.337381320611285511e+06
1.382510000000000083e+01 1.359712329694998683e+06
1.386999999999999922e+01 1.389234690180517733e+06
1.391489999999999938e+01 1.423027738161129877e+06
1.395979999999999954e+01 1.456806526280622231e+06
1.400469999999999970e+01 1.486770594008686021e+06
1.404959999999999987e+01 1.514228644690051675e+06
1.409450000000000003e+01 1.543530476912183221e+06
1.413940000000000019e+01 1.577853782272423850e+06
1.418420000000000059e+01 1.617827139285680838e+06
1.422910000000000075e+01 1.659896602043381426e+06
1.427399999999999913e+01 1.698171843679331709e+06
1.431889999999999930e+01 1.727171239777557785e+06
1.436379999999999946e+01 1.746651672371022170e+06
1.440869999999999962e+01 1.761568289616758004e+06
1.445359999999999978e+01 1.776304884664130397e+06
1.449849999999999994e+01 1.790163646227915538e+06
1.454330000000000034e+01 1.798444870757502969e+06
1.458820000000000050e+01 1.797228004865126451e+06
1.463310000000000066e+01 1.787061672785029048e+06
1.467800000000000082e+01 1.771407539484771201e+06
1.472289999999999921e+01 1.752674074790553190e+06
1.476779999999999937e+01 1.731767279496159637e+06
1.481269999999999953e+01 1.710073039951196406e+06
1.485749999999999993e+01 1.689385546530294698e+06
1.490240000000000009e+01 1.667960385382913286e+06
1.494730000000000025e+01 1.644306373882589396e+06
1.499220000000000041e+01 1.620694225069179432e+06
1.503710000000000058e+01 1.599299781479888596e+06
1.508200000000000074e+01 1.578838784376716707e+06
1.512689999999999912e+01 1.555024574620675063e+06
1.517179999999999929e+01 1.526459305392864626e+06
1.521659999999999968e+01 1.495031369609437417e+06
1.526149999999999984e+01 1.463554752507987898e+06
1.530640000000000001e+01 1.434935686731561786e+06
1.535130000000000017e+01 1.410419428227730794e+06
1.539620000000000033e+01 1.389833904069436248e+06
1.544110000000000049e+01 1.372035838281674543e+06
1.548600000000000065e+01 1.355348887370512355e+06
1.553079999999999927e+01 1.338374262216734933e+06
1.557569999999999943e+01 1.321141855907579185e+06
1.562059999999999960e+01 1.305299461540321354e+06
1.566549999999999976e+01 1.293455076515550027e+06
1.571039999999999992e+01 1.286633061159952544e+06
1.575530000000000008e+01 1.282369135714210803e+06
1.580020000000000024e+01 1.276135002471857239e+06
1.584510000000000041e+01 1.266113557719094912e+06
1.588990000000000080e+01 1.254156915602779249e+06
1.593479999999999919e+01 1.241501182810900733e+06
1.597969999999999935e+01 1.228188558412274346e+06
1.602459999999999951e+01 1.214610606500901515e+06
1.606950000000000145e+01 1.200601493576937821e+06
1.611439999999999984e+01 1.187343499648462050e+06
1.615930000000000177e+01 1.176253249523156090e+06
1.620420000000000016e+01 1.167240209848565981e+06
1.624899999999999878e+01 1.160112560143321753e+06
1.629390000000000072e+01 1.154897324425018858e+06
1.633879999999999910e+01 1.150602068620242644e+06
1.638370000000000104e+01 1.144899217919894960e+06
1.642859999999999943e+01 1.136369696951263584e+06
1.647350000000000136e+01 1.127137920575344469e+06
1.651839999999999975e+01 1.119727427013935288e+06
1.656319999999999837e+01 1.114962734056298155e+06
1.660810000000000031e+01 1.112099514725385467e+06
1.665299999999999869e+01 1.108759191395975417e+06
1.669790000000000063e+01 1.103982262488254812e+06
1.674279999999999902e+01 1.098857831795250764e+06
1.678770000000000095e+01 1.093687121348967543e+06
1.683259999999999934e+01 1.087803057740986114e+06
1.687750000000000128e+01 1.080462122887713369e+06
1.692229999999999990e+01 1.071622594856459182e+06
1.696719999999999828e+01 1.062245938854489941e+06
1.701210000000000022e+01 1.052888385977540631e+06
1.705699999999999861e+01 1.043490438157255296e+06
1.710190000000000055e+01 1.034902761068534222e+06
1.714679999999999893e+01 1.027294519472449785e+06
1.719170000000000087e+01 1.019443647735995241e+06
1.723649999999999949e+01 1.010539799999834737e+06
1.728140000000000143e+01 1.000174112372037023e+06
1.732629999999999981e+01 9.887944941084610764e+05
1.737120000000000175e+01 9.771785734844421968e+05
1.741610000000000014e+01 9.659508855326439952e+05
1.746099999999999852e+01 9.554096035386410076e+05
1.750590000000000046e+01 9.456358036814184161e+05
1.755079999999999885e+01 9.370744309544810094e+05
1.759560000000000102e+01 9.290135974245746620e+05
1.764049999999999940e+01 9.210724699134841794e+05
1.768540000000000134e+01 9.132644547881613253e+05
1.773029999999999973e+01 9.050521093281523790e+05
1.777520000000000167e+01 8.966899141894327477e+05
1.782010000000000005e+01 8.884229431439656764e+05
1.786499999999999844e+01 8.807386961276669754e+05
