# energy(eV) alpha
0.000000000000000000e+00 0.000000000000000000e+00
1.076000000000000012e-01 1.668709711234694026e+00
2.152000000000000024e-01 6.006454956924943467e+00
3.226999999999999869e-01 1.400757250548103627e+01
4.303000000000000158e-01 2.534093737283765790e+01
5.379000000000000448e-01 3.833013463639800733e+01
6.454999999999999627e-01 5.596882609126389241e+01
7.530000000000000027e-01 7.690125288175259755e+01
8.606000000000000316e-01 1.011350994687470433e+02
9.681999999999999496e-01 1.286456056324819883e+02
1.075800000000000090e+00 1.594185793235714641e+02
1.183400000000000007e+00 1.934366781352358373e+02
1.290899999999999936e+00 2.346356186405099322e+02
1.398500000000000076e+00 2.753941692931612124e+02
1.506099999999999994e+00 3.239578459906001626e+02
1.613699999999999912e+00 3.763077733339226825e+02
1.721200000000000063e+00 4.376637299695094043e+02
1.828799999999999981e+00 4.978040291704356832e+02
1.936399999999999899e+00 5.675170617356397997e+02
2.044000000000000039e+00 6.414887689245633737e+02
2.151499999999999968e+00 7.261632649664201153e+02
2.259100000000000108e+00 8.156292837007451908e+02
2.366699999999999804e+00 9.097713526764335938e+02
2.474299999999999944e+00 1.015984150741886992e+03
2.581900000000000084e+00 1.127306954948931207e+03
2.689400000000000013e+00 1.259726072566207222e+03
2.797000000000000153e+00 1.389894060652230564e+03
2.904599999999999849e+00 1.542730290642641876e+03
3.012199999999999989e+00 1.710862255272803395e+03
3.119699999999999918e+00 1.894893830944090269e+03
3.227300000000000058e+00 2.095530601084339651e+03
3.334900000000000198e+00 2.313324953493943667e+03
3.442499999999999893e+00 2.558799524759393080e+03
3.550100000000000033e+00 2.833215616037212385e+03
3.657599999999999962e+00 3.148157711631460188e+03
3.765200000000000102e+00 3.494636514089690991e+03
3.872799999999999798e+00 3.895542477768583922e+03
3.980399999999999938e+00 4.364185060934200919e+03
4.087900000000000311e+00 4.914215218527710022e+03
4.195500000000000007e+00 5.571746653818951927e+03
4.303099999999999703e+00 6.399254074630090145e+03
4.410700000000000287e+00 7.498014143037341455e+03
4.518299999999999983e+00 9.144841127140620301e+03
4.625799999999999912e+00 1.227560642364975865e+04
4.733399999999999608e+00 1.778960720267974102e+04
4.841000000000000192e+00 2.028894332331908663e+04
4.948599999999999888e+00 2.962038358767927275e+04
5.056099999999999817e+00 3.948559926449094928e+04
5.163700000000000401e+00 4.652158136533191282e+04
5.271300000000000097e+00 6.254457933791107644e+04
5.378899999999999793e+00 7.473788660339693888e+04
5.486399999999999721e+00 7.677845332601094560e+04
5.594000000000000306e+00 9.828143398992100265e+04
5.701600000000000001e+00 9.999662546049630328e+04
5.809199999999999697e+00 1.325647090391773090e+05
5.916800000000000281e+00 1.668326309791852254e+05
6.024300000000000210e+00 2.236579367516405473e+05
6.131899999999999906e+00 2.527269932130275411e+05
6.239499999999999602e+00 3.422792038876441075e+05
6.347100000000000186e+00 4.045079542257303256e+05
6.454600000000000115e+00 4.656746878123046481e+05
6.562199999999999811e+00 5.221197106906974805e+05
6.669800000000000395e+00 6.756204465234242380e+05
6.777400000000000091e+00 7.345838906390018528e+05
6.884999999999999787e+00 7.512153030643837992e+05
6.992499999999999716e+00 6.761728232894060202e+05
7.100100000000000300e+00 6.348565005959918490e+05
7.207699999999999996e+00 5.618199936479079770e+05
7.315299999999999692e+00 5.120781664857856231e+05
7.422799999999999621e+00 5.038721026987002697e+05
7.530400000000000205e+00 5.405259620070949895e+05
7.637999999999999901e+00 5.928832524035951355e+05
7.745599999999999596e+00 6.403842293568167370e+05
7.853200000000000180e+00 5.839583868342312053e+05
7.960700000000000109e+00 6.153132275743399514e+05
8.068300000000000693e+00 6.682533654391499003e+05
8.175900000000000389e+00 7.896218604724114994e+05
8.283500000000000085e+00 7.359205581163975876e+05
8.391000000000000014e+00 7.177975246198415989e+05
8.498599999999999710e+00 7.513905987439241726e+05
8.606199999999999406e+00 8.019400073683318915e+05
8.713800000000000878e+00 7.727712851172179217e+05
8.821300000000000807e+00 7.733333553951991489e+05
8.928900000000000503e+00 8.105641677030193387e+05
9.036500000000000199e+00 7.026672422466228018e+05
9.144099999999999895e+00 5.602780822168623563e+05
9.251699999999999591e+00 4.673132092219526530e+05
9.359199999999999520e+00 4.545652634984961478e+05
9.466799999999999216e+00 5.172795330234019202e+05
9.574400000000000688e+00 5.244759385859974427e+05
9.682000000000000384e+00 5.198794722307989723e+05
9.789500000000000313e+00 4.629674945372391376e+05
9.897100000000000009e+00 4.242460874576514470e+05
1.000469999999999970e+01 4.722255586441749474e+05
1.011229999999999940e+01 5.315610399716311367e+05
1.021990000000000087e+01 5.513957274485747330e+05
1.032740000000000080e+01 5.270893987353476696e+05
1.043500000000000050e+01 5.524036559630936245e+05
1.054260000000000019e+01 6.610231478113483172e+05
1.065019999999999989e+01 7.277690396159450756e+05
1.075769999999999982e+01 7.034267115090490552e+05
1.086529999999999951e+01 6.145847134429953294e+05
1.097289999999999921e+01 5.500011093865485163e+05
1.108050000000000068e+01 5.643766191254266305e+05
1.118810000000000038e+01 5.660303331015376607e+05
1.129560000000000031e+01 5.180696119564552791e+05
1.140320000000000000e+01 5.712842198430557037e+05
1.151079999999999970e+01 4.926104717790744617e+05
1.161839999999999939e+01 5.044909684428932378e+05
1.172589999999999932e+01 5.283492141167154768e+05
1.183350000000000080e+01 5.394206095144442515e+05
1.194110000000000049e+01 6.539565338484629756e+05
1.204870000000000019e+01 6.345069553237693617e+05
1.215620000000000012e+01 6.012108342229692498e+05
1.226379999999999981e+01 6.231739542103706626e+05
1.237139999999999951e+01 6.149347093821776798e+05
1.247899999999999920e+01 5.637478166038896888e+05
1.258660000000000068e+01 6.003310257659881609e+05
1.269410000000000061e+01 6.639907214289773256e+05
1.280170000000000030e+01 6.779611757866895059e+05
1.290930000000000000e+01 7.227436893513144460e+05
1.301689999999999969e+01 9.659458111216375837e+05
1.312439999999999962e+01 1.110751853082847083e+06
1.323199999999999932e+01 1.232379068243782036e+06
1.333960000000000079e+01 1.249459797454045387e+06
1.344720000000000049e+01 1.173652019753311528e+06
1.355480000000000018e+01 1.045357024490146898e+06
1.366230000000000011e+01 1.002159247862808406e+06
1.376989999999999981e+01 9.604626258759807097e+05
1.387749999999999950e+01 9.946599088669577613e+05
1.398509999999999920e+01 1.107886357867145212e+06
1.409259999999999913e+01 1.272216100208477117e+06
1.420020000000000060e+01 1.341017640713764122e+06
1.430780000000000030e+01 1.437254000876753591e+06
1.441539999999999999e+01 1.539640293111237697e+06
1.452299999999999969e+01 1.651000798913462320e+06
1.463049999999999962e+01 1.845685638036233839e+06
1.473809999999999931e+01 1.811949009609311586e+06
1.484570000000000078e+01 1.748098007783980807e+06
1.495330000000000048e+01 1.669195157392174471e+06
1.506080000000000041e+01 1.512787000634600176e+06
1.516840000000000011e+01 1.276008483103508595e+06
1.527599999999999980e+01 1.036815440240854630e+06
1.538359999999999950e+01 9.403017644867706113e+05
1.549109999999999943e+01 8.653801127798287198e+05
1.559869999999999912e+01 8.599867681670436868e+05
1.570630000000000059e+01 8.786518491973674390e+05
1.581390000000000029e+01 1.023996104067468899e+06
1.592149999999999999e+01 1.232655429539422272e+06
1.602899999999999991e+01 1.511350215402530972e+06
1.613660000000000139e+01 1.825782136800480308e+06
1.624419999999999931e+01 1.801000373108861968e+06
1.635180000000000078e+01 1.718336241902456852e+06
1.645929999999999893e+01 1.784305066825665301e+06
1.656690000000000040e+01 1.856299549078959273e+06
1.667449999999999832e+01 1.851167286558411084e+06
1.678209999999999980e+01 1.810330217587188119e+06
1.688970000000000127e+01 1.748590392533367034e+06
1.699719999999999942e+01 1.791918572284188820e+06
1.710480000000000089e+01 1.750220556404167553e+06
1.721239999999999881e+01 1.554169171475576004e+06
1.732000000000000028e+01 1.371409603298019618e+06
1.742749999999999844e+01 1.322525100073746638e+06
1.753509999999999991e+01 1.402017904763840372e+06
1.764270000000000138e+01 1.447371687613473972e+06
1.775029999999999930e+01 1.516020541513547534e+06
1.785790000000000077e+01 1.530496216308800736e+06
1.796539999999999893e+01 1.601438748594094766e+06
1.807300000000000040e+01 1.747737836103795096e+06
1.818059999999999832e+01 1.692413943692279048e+06
1.828819999999999979e+01 1.634800899244965054e+06
1.839570000000000149e+01 1.603106209524821723e+06
1.850329999999999941e+01 1.450511157360948622e+06
1.861090000000000089e+01 1.293958710322256200e+06
1.871849999999999881e+01 1.186763920879330253e+06
1.882600000000000051e+01 1.195409798558586743e+06
1.893359999999999843e+01 1.170917103903739247e+06
1.904119999999999990e+01 1.155770475076251896e+06
1.914880000000000138e+01 1.125015797811284428e+06
1.925639999999999930e+01 1.187177004533985164e+06
1.936390000000000100e+01 1.234124355140547035e+06
1.947149999999999892e+01 1.219107857695668703e+06
1.957910000000000039e+01 1.155009617214904400e+06
1.968669999999999831e+01 1.077306739832682069e+06
1.979420000000000002e+01 9.662474433864270104e+05
1.990180000000000149e+01 9.828444880998308072e+05
2.000939999999999941e+01 1.048415391243366059e+06
2.011700000000000088e+01 1.114235986415321706e+06
2.022459999999999880e+01 1.125021338802041486e+06
2.033210000000000051e+01 1.096169933114144253e+06
2.043969999999999843e+01 1.054946998888480477e+06
2.054729999999999990e+01 1.095477939793170895e+06
2.065490000000000137e+01 1.061424382247845642e+06
2.076239999999999952e+01 1.018084878599105054e+06
2.087000000000000099e+01 9.970206557640291285e+05
2.097759999999999891e+01 9.891094179955805885e+05
2.108520000000000039e+01 9.455316492080411408e+05
2.119279999999999831e+01 8.864333771682028892e+05
2.130030000000000001e+01 7.964478157749836100e+05
2.140790000000000148e+01 7.847197159268276300e+05
2.151549999999999940e+01 7.664832483313067351e+05
2.162310000000000088e+01 7.063453674046408851e+05
2.173059999999999903e+01 7.045367803337625228e+05
2.183820000000000050e+01 6.218651891784127802e+05
2.194579999999999842e+01 5.986394309418280609e+05
2.205339999999999989e+01 5.841619805469920393e+05
2.216090000000000160e+01 5.463233208721159026e+05
2.226849999999999952e+01 5.402237094829292037e+05
2.237610000000000099e+01 5.590221683810085524e+05
2.248369999999999891e+01 5.515240755065870471e+05
2.259130000000000038e+01 5.408037602855246514e+05
2.269879999999999853e+01 5.025217850523650995e+05
2.280640000000000001e+01 4.592531711677499698e+05
2.291400000000000148e+01 4.304138928132128785e+05
2.302159999999999940e+01 4.624635447895607795e+05
2.312910000000000110e+01 4.446477594857411459e+05
2.323669999999999902e+01 4.269060774064663565e+05
2.334430000000000049e+01 4.145026098280490260e+05
2.345189999999999841e+01 4.202606727218164015e+05
2.355949999999999989e+01 4.140503962979724747e+05
2.366700000000000159e+01 3.856109594536659424e+05
2.377459999999999951e+01 3.676851112710242160e+05
2.388220000000000098e+01 3.756821371612406801e+05
2.398979999999999890e+01 4.389432630466433475e+05
2.409730000000000061e+01 4.460610174398953095e+05
2.420489999999999853e+01 4.253077411386376480e+05
2.431250000000000000e+01 3.853897794320183457e+05
2.442010000000000147e+01 3.752893679141832981e+05
2.452769999999999939e+01 3.349847978959678439e+05
2.463520000000000110e+01 3.188718035658817971e+05
2.474279999999999902e+01 3.236330501350066625e+05
2.485040000000000049e+01 2.991383590104106115e+05
2.495799999999999841e+01 2.722405305802584044e+05
2.506550000000000011e+01 2.554569662130498036e+05
2.517310000000000159e+01 2.377238311327960691e+05
2.528069999999999951e+01 2.413747771396349708e+05
2.538830000000000098e+01 2.225592369302726584e+05
2.549579999999999913e+01 2.183532710069764871e+05
2.560340000000000060e+01 2.586093700008127780e+05
2.571099999999999852e+01 2.739720893566546729e+05
2.581859999999999999e+01 2.616857709917337925e+05
2.592620000000000147e+01 2.327555415701636521e+05
2.603369999999999962e+01 2.312739645925381337e+05
2.614130000000000109e+01 2.382392553984479746e+05
2.624889999999999901e+01 2.149381627062583284e+05
2.635650000000000048e+01 2.162822440577013476e+05
2.646399999999999864e+01 2.021204622293756402e+05
2.657160000000000011e+01 1.999773756490767701e+05
2.667920000000000158e+01 1.782804878284014121e+05
2.678679999999999950e+01 1.684881826308510499e+05
2.689440000000000097e+01 1.646666895301206969e+05
2.700189999999999912e+01 1.707498133003312105e+05
2.710950000000000060e+01 1.774090370613423875e+05
2.721709999999999852e+01 1.744896416445414652e+05
2.732469999999999999e+01 1.779656371457392816e+05
2.743220000000000169e+01 1.653403857364695868e+05
2.753979999999999961e+01 1.657877398995728290e+05
2.764740000000000109e+01 1.536118411083732208e+05
2.775499999999999901e+01 1.482562572291870310e+05
2.786260000000000048e+01 1.379359922736595618e+05
2.797009999999999863e+01 1.318412100424842210e+05
2.807770000000000010e+01 1.426387665520991432e+05
2.818530000000000157e+01 1.344833986176055623e+05
2.829289999999999949e+01 1.305354058362254727e+05
2.840040000000000120e+01 1.376345101602096984e+05
2.850799999999999912e+01 1.364036645041960583e+05
2.861560000000000059e+01 1.363321623540656001e+05
2.872319999999999851e+01 1.425642381742731086e+05
2.883070000000000022e+01 1.373623633475485840e+05
2.893830000000000169e+01 1.396793182673719712e+05
2.904589999999999961e+01 1.334669785174919234e+05
2.915350000000000108e+01 1.262231581221936358e+05
2.926109999999999900e+01 1.268565969441269262e+05
2.936860000000000070e+01 1.231661080878539506e+05
2.947619999999999862e+01 1.103362352192182443e+05
2.958380000000000010e+01 1.038641386432601576e+05
2.969140000000000157e+01 1.034315140809548466e+05
2.979889999999999972e+01 1.053469640881754312e+05
2.990650000000000119e+01 1.205293479391182045e+05
3.001409999999999911e+01 1.293556310362861259e+05
3.012170000000000059e+01 1.273664019100767327e+05
3.022929999999999851e+01 1.248262835852729622e+05
3.033680000000000021e+01 1.283145852058525052e+05
3.044440000000000168e+01 1.108497475074245303e+05
3.055199999999999960e+01 1.004593775132292940e+05
3.065960000000000107e+01 1.088640747948511562e+05
3.076709999999999923e+01 1.099462216932316660e+05
3.087470000000000070e+01 1.095308149994129781e+05
3.098229999999999862e+01 1.028334048060592177e+05
3.108990000000000009e+01 9.196759845148300519e+04
3.119750000000000156e+01 8.984860640779738605e+04
3.130499999999999972e+01 9.584741383746065549e+04
3.141260000000000119e+01 1.048741202085664845e+05
3.152019999999999911e+01 1.037868259626672516e+05
3.162780000000000058e+01 1.000688170822176326e+05
3.173529999999999873e+01 9.253053744516345614e+04
3.184290000000000020e+01 8.843572907027170004e+04
3.195050000000000168e+01 9.050198183339166280e+04
3.205810000000000315e+01 9.531311665836202155e+04
3.216559999999999775e+01 1.061185280553412013e+05
3.227320000000000277e+01 1.112837909026216657e+05
3.238080000000000069e+01 9.830614871086354833e+04
3.248839999999999861e+01 9.641142150366719579e+04
3.259599999999999653e+01 9.374389650793623878e+04
3.270349999999999824e+01 8.608282002356871089e+04
3.281110000000000326e+01 9.745589471991051687e+04
3.291870000000000118e+01 9.894507886892065289e+04
3.302629999999999910e+01 9.059886857608528226e+04
3.313380000000000081e+01 8.525746134243761480e+04
3.324139999999999873e+01 9.241677065891475650e+04
3.334899999999999665e+01 9.544631120009889128e+04
3.345660000000000167e+01 8.543933030270352901e+04
3.356419999999999959e+01 7.989079656867562153e+04
3.367170000000000130e+01 8.084008810594888928e+04
3.377929999999999922e+01 9.178024776436205138e+04
3.388689999999999714e+01 9.296054452552516886e+04
3.399450000000000216e+01 8.085437597392186581e+04
3.410199999999999676e+01 7.430448002736459603e+04
3.420960000000000178e+01 6.832475690165648120e+04
3.431719999999999970e+01 6.636215129921904008e+04
3.442479999999999762e+01 6.340448036405346647e+04
3.453240000000000265e+01 6.183814803621140891e+04
3.463989999999999725e+01 6.126778487141039659e+04
3.474750000000000227e+01 6.373486396347761911e+04
3.485510000000000019e+01 6.853477695845419657e+04
3.496269999999999811e+01 6.791529015532098128e+04
3.507019999999999982e+01 6.680861384917621035e+04
3.517779999999999774e+01 6.877479068413322966e+04
3.528540000000000276e+01 6.918069788987026550e+04
3.539300000000000068e+01 6.541563898091388546e+04
3.550050000000000239e+01 6.839885394374703174e+04
3.560810000000000031e+01 6.945702328080231382e+04
3.571569999999999823e+01 6.408766632385873527e+04
3.582330000000000325e+01 5.920182649624627811e+04
3.593090000000000117e+01 5.862381022025486891e+04
3.603840000000000288e+01 6.141192616576862201e+04
3.614600000000000080e+01 6.389578095474676229e+04
3.625359999999999872e+01 5.926731517132792214e+04
3.636119999999999663e+01 5.938580077816956327e+04
3.646869999999999834e+01 5.599356117352721776e+04
3.657630000000000337e+01 4.893365189014997304e+04
3.668390000000000128e+01 4.747266470972647221e+04
3.679149999999999920e+01 5.068400934080909065e+04
3.689909999999999712e+01 5.184704089617956924e+04
3.700659999999999883e+01 5.132827689555055986e+04
3.711419999999999675e+01 4.927839037825338164e+04
3.722180000000000177e+01 5.443494113801800995e+04
3.732939999999999969e+01 5.695341425685871218e+04
3.743690000000000140e+01 5.435439885641208093e+04
3.754449999999999932e+01 5.302131603663112764e+04
3.765209999999999724e+01 4.476774436738999066e+04
3.775970000000000226e+01 4.372549201041695778e+04
3.786730000000000018e+01 4.313235705185306142e+04
3.797480000000000189e+01 4.469115281471779599e+04
3.808239999999999981e+01 4.713468575669921847e+04
3.818999999999999773e+01 5.004515554709876596e+04
3.829760000000000275e+01 5.148059834646393574e+04
3.840509999999999735e+01 5.098083694153305987e+04
3.851270000000000238e+01 4.827512165513497166e+04
3.862030000000000030e+01 4.796204810322233243e+04
3.872789999999999822e+01 4.260204887527183746e+04
3.883539999999999992e+01 4.155561586185346823e+04
3.894299999999999784e+01 4.206779406357327389e+04
3.905060000000000286e+01 4.192303752910983167e+04
3.915820000000000078e+01 4.377753853159026039e+04
3.926579999999999870e+01 4.167685523456431838e+04
3.937330000000000041e+01 4.064810206121161173e+04
3.948089999999999833e+01 4.006771575022399338e+04
3.958850000000000335e+01 3.859024115579063800e+04
3.969610000000000127e+01 3.820608072875298240e+04
3.980360000000000298e+01 4.005213316429500264e+04
3.991120000000000090e+01 4.216816610451982706e+04
4.001879999999999882e+01 3.870520449994852970e+04
4.012639999999999674e+01 3.562345570886225323e+04
4.023400000000000176e+01 3.771086491170113732e+04
4.034150000000000347e+01 3.532325414113129227e+04
4.044910000000000139e+01 3.357024770964440540e+04
4.055669999999999931e+01 3.566450471398883383e+04
4.066429999999999723e+01 3.415851962861578068e+04
4.077179999999999893e+01 3.376067174543361762e+04
4.087939999999999685e+01 3.472919195061041682e+04
4.098700000000000188e+01 3.548413856791870785e+04
4.109459999999999980e+01 3.533442604527936055e+04
4.120219999999999771e+01 3.426371305364278669e+04
4.130969999999999942e+01 3.431002542478450778e+04
4.141729999999999734e+01 3.897855626675448002e+04
4.152490000000000236e+01 3.726318474838923430e+04
4.163250000000000028e+01 3.458638706152538361e+04
4.174000000000000199e+01 3.026024499622006260e+04
4.184759999999999991e+01 2.868303147698026078e+04
4.195519999999999783e+01 2.779284592173633428e+04
4.206280000000000285e+01 2.968466942228953849e+04
4.217029999999999745e+01 3.229498878916299509e+04
4.227790000000000248e+01 3.493530843265807198e+04
4.238550000000000040e+01 3.432176238634612673e+04
4.249309999999999832e+01 3.464090177574503468e+04
4.260070000000000334e+01 3.119431886409818981e+04
4.270819999999999794e+01 3.219262761461099581e+04
4.281580000000000297e+01 3.014835712583835630e+04
