# energy(eV) alpha
0.000000000000000000e+00 0.000000000000000000e+00
3.320000000000000034e-02 1.341666834189011004e+00
6.629999999999999782e-02 5.463134126228809784e+00
9.950000000000000511e-02 1.221751461865094690e+01
1.325999999999999956e-01 2.173934288530919900e+01
1.658000000000000029e-01 3.413248126205673572e+01
1.990000000000000102e-01 4.930124412687125357e+01
2.321000000000000008e-01 6.739437490711519274e+01
2.652999999999999803e-01 8.832737897019116247e+01
2.983999999999999986e-01 1.125015216881898539e+02
3.316000000000000059e-01 1.396110766180820235e+02
3.648000000000000131e-01 1.701868822733284219e+02
3.978999999999999759e-01 2.046364022567902055e+02
4.310999999999999832e-01 2.422556201069369024e+02
4.642000000000000015e-01 2.836539144003390902e+02
4.974000000000000088e-01 3.286916867877794743e+02
5.305999999999999606e-01 3.782068130198583162e+02
5.636999999999999789e-01 4.314415893067188108e+02
5.968999999999999861e-01 4.904694041715288222e+02
6.300000000000000044e-01 5.535107332783322818e+02
6.632000000000000117e-01 6.223377176297304914e+02
6.964000000000000190e-01 6.971339004369626764e+02
7.295000000000000373e-01 7.780516945507328046e+02
7.627000000000000446e-01 8.661461343155713166e+02
7.957999999999999519e-01 9.615189608380505888e+02
8.289999999999999591e-01 1.064715320982822732e+03
8.621999999999999664e-01 1.177257695461293451e+03
8.952999999999999847e-01 1.298750308107130195e+03
9.284999999999999920e-01 1.431242655261663685e+03
9.616000000000000103e-01 1.575662551597154788e+03
9.948000000000000176e-01 1.734376271573253689e+03
1.028000000000000025e+00 1.908662356626515702e+03
1.061099999999999932e+00 2.099814924041513677e+03
1.094300000000000050e+00 2.311424548757359844e+03
1.127499999999999947e+00 2.544188822254511706e+03
1.160600000000000076e+00 2.804815452499841740e+03
1.193799999999999972e+00 3.095889868330999889e+03
1.226900000000000102e+00 3.423616052021650830e+03
1.260099999999999998e+00 3.795650716324383211e+03
1.293299999999999894e+00 4.219177244864233217e+03
1.326400000000000023e+00 4.707474361672726445e+03
1.359599999999999920e+00 5.277563993033384577e+03
1.392700000000000049e+00 5.948741558952891864e+03
1.425899999999999945e+00 6.748983655481228197e+03
1.459100000000000064e+00 7.725938924644975486e+03
1.492199999999999971e+00 8.937666136225401715e+03
1.525400000000000089e+00 1.047959263089815067e+04
1.558499999999999996e+00 1.248808409221450347e+04
1.591699999999999893e+00 1.516256633907375726e+04
1.624900000000000011e+00 1.871946567125320507e+04
1.657999999999999918e+00 2.321757625381381149e+04
1.691200000000000037e+00 2.836321202682055809e+04
1.724299999999999944e+00 3.412633018529562105e+04
1.757500000000000062e+00 4.139269203779265081e+04
1.790699999999999958e+00 5.055460117993014137e+04
1.823800000000000088e+00 6.057867739876265114e+04
1.856999999999999984e+00 7.028917820023713284e+04
1.890099999999999891e+00 7.990109382177935913e+04
1.923300000000000010e+00 9.013920531507977284e+04
1.956499999999999906e+00 9.928001889472214680e+04
1.989600000000000035e+00 1.048877143213399977e+05
2.022800000000000153e+00 1.069327528749542107e+05
2.055899999999999839e+00 1.053930433245346067e+05
2.089100000000000179e+00 1.002942656551355321e+05
2.122300000000000075e+00 9.349031974025057571e+04
2.155400000000000205e+00 8.722843662152906472e+04
2.188600000000000101e+00 8.321366222973023832e+04
2.221699999999999786e+00 8.184734700187949056e+04
2.254900000000000126e+00 8.288745979924862331e+04
2.288100000000000023e+00 8.650428399581124540e+04
2.321200000000000152e+00 9.330840838325575169e+04
2.354400000000000048e+00 1.024920968591707351e+05
2.387500000000000178e+00 1.121431144876166363e+05
2.420700000000000074e+00 1.221814689755883155e+05
2.453899999999999970e+00 1.338596753977783956e+05
2.487000000000000099e+00 1.469766581189656572e+05
2.520199999999999996e+00 1.597022075834308343e+05
2.553300000000000125e+00 1.700011620869283506e+05
2.586500000000000021e+00 1.764948352326037420e+05
2.619699999999999918e+00 1.782458601386692317e+05
2.652800000000000047e+00 1.754970674469712540e+05
2.685999999999999943e+00 1.710674202386016841e+05
2.719100000000000072e+00 1.673118472713780939e+05
2.752299999999999969e+00 1.646794497714582249e+05
2.785499999999999865e+00 1.628430164662660100e+05
2.818599999999999994e+00 1.612363006309213815e+05
2.851799999999999891e+00 1.602765201664917986e+05
2.884900000000000020e+00 1.610510543082318618e+05
2.918099999999999916e+00 1.636181942431759089e+05
2.951299999999999812e+00 1.673726262511786481e+05
2.984399999999999942e+00 1.720299682801677263e+05
3.017599999999999838e+00 1.773701930505340279e+05
3.050699999999999967e+00 1.830707778700448689e+05
3.083899999999999864e+00 1.888545112750945264e+05
3.117100000000000204e+00 1.945026295870738395e+05
3.150199999999999889e+00 2.003949708951104258e+05
3.183399999999999785e+00 2.063926416900354088e+05
3.216600000000000126e+00 2.114354161747759790e+05
3.249699999999999811e+00 2.151920234056008921e+05
3.282900000000000151e+00 2.182143017781373928e+05
3.315999999999999837e+00 2.209165000588260009e+05
3.349200000000000177e+00 2.236721624969712866e+05
3.382400000000000073e+00 2.267957109597149247e+05
3.415500000000000203e+00 2.306066656404906535e+05
3.448700000000000099e+00 2.344432598221519438e+05
3.481799999999999784e+00 2.364353854728158622e+05
3.515000000000000124e+00 2.358490233096808661e+05
3.548200000000000021e+00 2.337785367572193500e+05
3.581300000000000150e+00 2.315453176039970713e+05
3.614500000000000046e+00 2.296435844648899219e+05
3.647600000000000176e+00 2.286227171613076644e+05
3.680800000000000072e+00 2.298917603881314280e+05
3.713999999999999968e+00 2.345018052736423560e+05
3.747100000000000097e+00 2.417470332879639463e+05
3.780299999999999994e+00 2.495861802581098746e+05
3.813400000000000123e+00 2.561521160584918398e+05
3.846600000000000019e+00 2.608283213960014691e+05
3.879799999999999915e+00 2.634492328161352780e+05
3.912900000000000045e+00 2.633417132632221328e+05
3.946099999999999941e+00 2.607330224355334358e+05
3.979200000000000070e+00 2.578507035245224542e+05
4.012400000000000411e+00 2.569351543865997810e+05
4.045600000000000307e+00 2.581440356376428390e+05
4.078700000000000436e+00 2.604735285131188866e+05
4.111900000000000333e+00 2.635753576271730126e+05
4.144999999999999574e+00 2.674876780974570429e+05
4.178200000000000358e+00 2.719208882207758725e+05
4.211400000000000254e+00 2.762783552556537907e+05
4.244500000000000384e+00 2.799892315936986706e+05
4.277700000000000280e+00 2.824820626288742642e+05
4.310800000000000409e+00 2.834393289633238455e+05
4.344000000000000306e+00 2.834947859076801105e+05
4.377200000000000202e+00 2.837830901142346556e+05
4.410300000000000331e+00 2.849196348585736123e+05
4.443500000000000227e+00 2.868913607620234252e+05
4.476600000000000357e+00 2.896571793897641473e+05
4.509800000000000253e+00 2.934244958964760881e+05
4.543000000000000149e+00 2.985590178964345250e+05
4.576100000000000279e+00 3.053924634743471397e+05
4.609300000000000175e+00 3.137715272101641167e+05
4.642400000000000304e+00 3.230021241697706864e+05
4.675600000000000200e+00 3.323808707874889951e+05
4.708800000000000097e+00 3.410817686514728703e+05
4.741900000000000226e+00 3.485214740941157797e+05
4.775100000000000122e+00 3.547026654718995560e+05
4.808200000000000252e+00 3.597731369737095665e+05
4.841400000000000148e+00 3.640372496963675367e+05
4.874600000000000044e+00 3.683076544298565132e+05
4.907700000000000173e+00 3.733877247860886855e+05
4.940900000000000070e+00 3.794855928630749695e+05
4.974000000000000199e+00 3.860126258322541253e+05
5.007200000000000095e+00 3.921047698955329251e+05
5.040399999999999991e+00 3.970803743586521014e+05
5.073500000000000121e+00 4.007383904246585444e+05
5.106700000000000017e+00 4.036568617827533744e+05
5.139800000000000146e+00 4.064713011986306519e+05
5.173000000000000043e+00 4.089444352568482282e+05
5.206199999999999939e+00 4.106489911261489033e+05
5.239300000000000068e+00 4.118436082525706152e+05
5.272499999999999964e+00 4.132071175415267935e+05
5.305699999999999861e+00 4.153397396368047339e+05
5.338799999999999990e+00 4.185058931231593597e+05
5.371999999999999886e+00 4.226274630485594389e+05
5.405100000000000016e+00 4.273451274000414996e+05
5.438299999999999912e+00 4.322598916464242502e+05
5.471499999999999808e+00 4.371775009287741850e+05
5.504599999999999937e+00 4.422839620410115458e+05
5.537799999999999834e+00 4.477343417649797630e+05
5.570899999999999963e+00 4.534782808525451692e+05
5.604099999999999859e+00 4.591898309671955649e+05
5.637299999999999756e+00 4.643515636141817085e+05
5.670399999999999885e+00 4.687756938367524999e+05
5.703599999999999781e+00 4.725417931241926854e+05
5.736699999999999910e+00 4.754306950586437597e+05
5.769899999999999807e+00 4.774560164979263791e+05
5.803099999999999703e+00 4.793252822647934081e+05
5.836199999999999832e+00 4.821773071163622080e+05
5.869399999999999729e+00 4.866236650765775121e+05
5.902499999999999858e+00 4.923159952904952224e+05
5.935699999999999754e+00 4.985689429995791288e+05
5.968899999999999650e+00 5.048846828234011191e+05
6.001999999999999780e+00 5.110726878050873638e+05
6.035199999999999676e+00 5.169222854095652001e+05
6.068299999999999805e+00 5.220887602039172198e+05
6.101499999999999702e+00 5.264153091519073350e+05
6.134699999999999598e+00 5.300371522202260094e+05
6.167799999999999727e+00 5.333546880617022980e+05
6.200999999999999623e+00 5.366883989222074160e+05
6.234099999999999753e+00 5.397823186639561318e+05
6.267299999999999649e+00 5.423804062005167361e+05
6.300500000000000433e+00 5.447768201520679286e+05
6.333599999999999675e+00 5.471720607604467077e+05
6.366799999999999571e+00 5.494413793987369863e+05
6.399899999999999700e+00 5.517743323867464205e+05
6.433099999999999596e+00 5.544221507030006032e+05
6.466300000000000381e+00 5.574457371384934522e+05
6.499399999999999622e+00 5.610760124716128921e+05
6.532600000000000406e+00 5.655085807908741990e+05
6.565699999999999648e+00 5.703626391477136640e+05
6.598900000000000432e+00 5.749937736053838162e+05
6.632100000000000328e+00 5.789645522659771377e+05
6.665199999999999569e+00 5.822196667333201040e+05
6.698400000000000354e+00 5.854104024839539779e+05
6.731499999999999595e+00 5.894786286893707002e+05
6.764700000000000379e+00 5.948979957607840188e+05
6.797900000000000276e+00 6.009932127701020800e+05
6.831000000000000405e+00 6.066997953330947785e+05
6.864200000000000301e+00 6.114886625661493745e+05
6.897300000000000431e+00 6.155268712762993528e+05
6.930500000000000327e+00 6.192969260913277976e+05
6.963700000000000223e+00 6.230111731574016158e+05
6.996800000000000352e+00 6.263103075095729437e+05
7.030000000000000249e+00 6.290817546241411474e+05
7.063100000000000378e+00 6.315749547227773583e+05
7.096300000000000274e+00 6.336050542476889677e+05
7.129500000000000171e+00 6.348686059316035826e+05
7.162600000000000300e+00 6.358008468917360296e+05
7.195800000000000196e+00 6.370138677803964820e+05
7.228900000000000325e+00 6.385361679796933895e+05
7.262100000000000222e+00 6.400743403927137842e+05
7.295300000000000118e+00 6.417640353964057285e+05
7.328400000000000247e+00 6.439013251253465423e+05
7.361600000000000144e+00 6.464280841861742083e+05
7.394800000000000040e+00 6.489838592614234658e+05
7.427900000000000169e+00 6.515678670890637441e+05
7.461100000000000065e+00 6.543193230025226949e+05
7.494200000000000195e+00 6.573064276970006758e+05
7.527400000000000091e+00 6.605254784299569437e+05
7.560599999999999987e+00 6.640846246862683911e+05
7.593700000000000117e+00 6.681149136811703211e+05
7.626900000000000013e+00 6.724317847971449373e+05
7.660000000000000142e+00 6.767031088187565329e+05
7.693200000000000038e+00 6.807658955023186281e+05
7.726399999999999935e+00 6.846361884595582960e+05
7.759500000000000064e+00 6.882123928877807921e+05
7.792699999999999960e+00 6.913819602450582897e+05
7.825800000000000090e+00 6.940955953207238344e+05
7.858999999999999986e+00 6.962932963499322068e+05
7.892199999999999882e+00 6.977979552837356459e+05
7.925300000000000011e+00 6.988357156628108351e+05
7.958499999999999908e+00 7.000595135962037602e+05
7.991600000000000037e+00 7.018944399481295841e+05
8.024800000000000821e+00 7.041055996975364396e+05
8.057999999999999829e+00 7.063639702418020461e+05
8.091100000000000847e+00 7.086405053763787728e+05
8.124299999999999855e+00 7.111264013106604107e+05
8.157400000000000873e+00 7.138011337652087677e+05
8.190599999999999881e+00 7.165181916754964041e+05
8.223800000000000665e+00 7.191045898394801188e+05
8.256899999999999906e+00 7.215398829676837195e+05
8.290100000000000691e+00 7.238819085813825950e+05
8.323199999999999932e+00 7.261793694536462426e+05
8.356400000000000716e+00 7.284468289655717090e+05
8.389599999999999724e+00 7.308988327985701617e+05
8.422700000000000742e+00 7.338413287816502852e+05
8.455899999999999750e+00 7.374150516226224136e+05
8.489000000000000767e+00 7.415534908134920988e+05
8.522199999999999775e+00 7.462427623340634163e+05
8.555400000000000560e+00 7.513110228362111375e+05
8.588499999999999801e+00 7.564300181484868517e+05
8.621700000000000585e+00 7.613752643531590002e+05
8.654799999999999827e+00 7.662328091779955430e+05
8.688000000000000611e+00 7.710283665799985174e+05
8.721199999999999619e+00 7.752132454814783996e+05
8.754300000000000637e+00 7.783957375538104679e+05
8.787499999999999645e+00 7.807516210515530547e+05
8.820600000000000662e+00 7.825681380234836834e+05
8.853799999999999670e+00 7.840273714879438048e+05
8.887000000000000455e+00 7.850170687535119941e+05
8.920099999999999696e+00 7.854797927237264812e+05
8.953300000000000480e+00 7.856728055616389029e+05
8.986399999999999721e+00 7.860307020385672804e+05
9.019600000000000506e+00 7.867048484632855980e+05
9.052799999999999514e+00 7.872746217600873206e+05
9.085900000000000531e+00 7.874138100746215787e+05
9.119099999999999540e+00 7.872247050268960884e+05
9.152200000000000557e+00 7.872170085004552966e+05
9.185399999999999565e+00 7.878905924203920877e+05
9.218600000000000350e+00 7.894392465821719961e+05
9.251699999999999591e+00 7.918708273959064391e+05
9.284900000000000375e+00 7.951661410953504965e+05
9.317999999999999616e+00 7.992870343566797674e+05
9.351200000000000401e+00 8.039998911036825739e+05
9.384399999999999409e+00 8.089718126935554901e+05
9.417500000000000426e+00 8.136946982002896257e+05
9.450699999999999434e+00 8.176764829335520044e+05
9.483900000000000219e+00 8.205565576142714126e+05
9.516999999999999460e+00 8.226848489027654286e+05
9.550200000000000244e+00 8.249409480025493540e+05
9.583299999999999486e+00 8.276906746584344655e+05
9.616500000000000270e+00 8.302833524571881862e+05
9.649699999999999278e+00 8.317564685950230341e+05
9.682800000000000296e+00 8.316175949040479027e+05
9.715999999999999304e+00 8.297714809659529710e+05
9.749100000000000321e+00 8.265513215343124466e+05
9.782299999999999329e+00 8.228401088527627289e+05
9.815500000000000114e+00 8.194977542499321280e+05
9.848599999999999355e+00 8.169609717122437432e+05
9.881800000000000139e+00 8.154578618807628518e+05
9.914899999999999380e+00 8.153585265126267914e+05
9.948100000000000165e+00 8.167333147159406217e+05
9.981299999999999173e+00 8.190457577243507840e+05
1.001440000000000019e+01 8.217787772224172950e+05
1.004759999999999920e+01 8.246851035224786028e+05
1.008070000000000022e+01 8.274617341057435842e+05
1.011389999999999922e+01 8.296020542950149393e+05
1.014710000000000001e+01 8.307105451472814893e+05
1.018019999999999925e+01 8.309166415386220906e+05
1.021340000000000003e+01 8.304903166233223164e+05
1.024649999999999928e+01 8.297074397128489800e+05
1.027970000000000006e+01 8.288550829564427258e+05
1.031290000000000084e+01 8.282307294124391628e+05
1.034600000000000009e+01 8.278353539025847567e+05
1.037920000000000087e+01 8.273880392519488232e+05
1.041230000000000011e+01 8.266484356720887590e+05
1.044549999999999912e+01 8.257746230378019391e+05
1.047869999999999990e+01 8.248972664740476757e+05
1.051179999999999914e+01 8.240109040399832884e+05
1.054499999999999993e+01 8.234024444116066443e+05
1.057809999999999917e+01 8.235309175653561251e+05
1.061129999999999995e+01 8.245416347781470977e+05
1.064450000000000074e+01 8.260521928338980069e+05
1.067759999999999998e+01 8.277609981994784903e+05
1.071080000000000076e+01 8.296873871138546383e+05
1.074390000000000001e+01 8.320218601841686759e+05
1.077710000000000079e+01 8.344667708042629529e+05
1.081029999999999980e+01 8.362666382980417693e+05
1.084340000000000082e+01 8.372314520779432496e+05
1.087659999999999982e+01 8.375927261356711388e+05
1.090970000000000084e+01 8.373440606551234378e+05
1.094289999999999985e+01 8.367348750641919905e+05
1.097610000000000063e+01 8.360993499788802583e+05
1.100919999999999987e+01 8.354059866926830728e+05
1.104240000000000066e+01 8.347082486119103851e+05
1.107549999999999990e+01 8.341727757105205674e+05
1.110870000000000068e+01 8.336909043084641453e+05
1.114189999999999969e+01 8.328364647340922384e+05
1.117500000000000071e+01 8.313827887386585353e+05
1.120819999999999972e+01 8.293946144050803268e+05
1.124130000000000074e+01 8.270507427996131591e+05
1.127449999999999974e+01 8.244063581412013154e+05
1.130770000000000053e+01 8.218060288293408230e+05
1.134079999999999977e+01 8.194923428946157219e+05
1.137400000000000055e+01 8.172238010125447763e+05
1.140709999999999980e+01 8.148010923971118173e+05
1.144030000000000058e+01 8.123710571579617681e+05
1.147349999999999959e+01 8.102403274819817161e+05
1.150660000000000061e+01 8.085288902566980105e+05
1.153979999999999961e+01 8.070062193597513251e+05
1.157300000000000040e+01 8.054722194070240948e+05
1.160609999999999964e+01 8.043857674762883689e+05
1.163930000000000042e+01 8.041149686143599683e+05
1.167239999999999966e+01 8.043523158235027222e+05
1.170560000000000045e+01 8.044003577558442485e+05
1.173879999999999946e+01 8.038829863448174438e+05
1.177190000000000047e+01 8.025991964656525524e+05
1.180509999999999948e+01 8.006397591914014192e+05
1.183820000000000050e+01 7.984068731862000423e+05
1.187139999999999951e+01 7.964417535871417494e+05
1.190460000000000029e+01 7.949428968472098932e+05
1.193769999999999953e+01 7.936261378381694667e+05
1.197090000000000032e+01 7.921713541652081767e+05
1.200399999999999956e+01 7.904818149053421803e+05
1.203720000000000034e+01 7.882948352893023985e+05
1.207039999999999935e+01 7.856180321175095160e+05
1.210350000000000037e+01 7.828458138511980651e+05
1.213669999999999938e+01 7.804485283440479543e+05
1.216980000000000040e+01 7.784895541920439573e+05
1.220299999999999940e+01 7.769299211803788785e+05
1.223620000000000019e+01 7.757549602795473766e+05
1.226929999999999943e+01 7.749585211972004035e+05
1.230250000000000021e+01 7.747630394777555484e+05
1.233559999999999945e+01 7.755059647580186138e+05
1.236880000000000024e+01 7.774487626818835270e+05
1.240199999999999925e+01 7.808251101983000990e+05
1.243510000000000026e+01 7.861365942344791256e+05
1.246829999999999927e+01 7.939338755572958617e+05
1.250140000000000029e+01 8.041704714515837841e+05
1.253459999999999930e+01 8.162528933996852720e+05
1.256780000000000008e+01 8.289774489150532754e+05
1.260089999999999932e+01 8.417473060136081185e+05
1.263410000000000011e+01 8.548748760021090275e+05
1.266719999999999935e+01 8.689094632464925526e+05
1.270040000000000013e+01 8.836956189749485347e+05
1.273359999999999914e+01 8.980586491135531105e+05
1.276670000000000016e+01 9.108340754437150899e+05
1.279989999999999917e+01 9.219473460011492716e+05
1.283300000000000018e+01 9.321351343385070795e+05
1.286619999999999919e+01 9.423602792786165373e+05
1.289939999999999998e+01 9.532350034185680561e+05
1.293249999999999922e+01 9.650062537525352091e+05
1.296570000000000000e+01 9.778879342753160745e+05
1.299879999999999924e+01 9.926182272856620839e+05
1.303200000000000003e+01 1.010142648236251902e+06
1.306520000000000081e+01 1.030608377750573098e+06
1.309830000000000005e+01 1.052867269862260669e+06
1.313150000000000084e+01 1.075410897381825605e+06
1.316460000000000008e+01 1.097873362606284209e+06
1.319780000000000086e+01 1.121120805675788783e+06
