# energy(eV) alpha
0.000000000000000000e+00 0.000000000000000000e+00
4.819999999999999979e-02 4.220482707222570906e-01
9.629999999999999671e-02 1.499009690922306959e+00
1.444999999999999896e-01 3.514325767999328498e+00
1.925999999999999934e-01 5.995243322125324958e+00
2.407999999999999863e-01 9.602795677859491619e+00
2.888999999999999901e-01 1.376735710529766799e+01
3.371000000000000107e-01 1.868435837022521895e+01
3.851999999999999869e-01 2.471740332912731830e+01
4.334000000000000075e-01 3.159684231186806258e+01
4.814999999999999836e-01 3.883978594896665015e+01
5.296999999999999487e-01 4.683528842341748089e+01
5.777999999999999803e-01 5.612666420899788022e+01
6.260000000000000009e-01 6.565571303990634533e+01
6.741000000000000325e-01 7.656943963636938122e+01
7.223000000000000531e-01 8.832678349554159070e+01
7.703999999999999737e-01 1.009029384410940935e+02
8.185999999999999943e-01 1.135282679066056630e+02
8.668000000000000149e-01 1.277289608482563921e+02
9.149000000000000465e-01 1.427406430274170077e+02
9.630999999999999561e-01 1.585925244849948967e+02
1.011200000000000099e+00 1.752468722349964878e+02
1.059399999999999897e+00 1.937638655969076638e+02
1.107499999999999929e+00 2.120992403955654311e+02
1.155699999999999950e+00 2.312692696749807624e+02
1.203799999999999981e+00 2.512271109587821911e+02
1.252000000000000002e+00 2.744338734004673483e+02
1.300100000000000033e+00 2.960953081941312917e+02
1.348300000000000054e+00 3.198842677738089719e+02
1.396400000000000086e+00 3.445368833553704917e+02
1.444600000000000106e+00 3.714908035623343494e+02
1.492699999999999916e+00 3.993911694870835731e+02
1.540899999999999936e+00 4.253245715228111408e+02
1.588999999999999968e+00 4.565898459438428176e+02
1.637199999999999989e+00 4.857911300934470660e+02
1.685300000000000020e+00 5.190585357800403017e+02
1.733500000000000041e+00 5.517338871351875014e+02
1.781700000000000061e+00 5.870549005406476226e+02
1.829800000000000093e+00 6.251250085980537960e+02
1.877999999999999892e+00 6.625415498716788534e+02
1.926099999999999923e+00 6.990956366888503908e+02
1.974299999999999944e+00 7.422516051337737508e+02
2.022400000000000198e+00 7.826936766075242531e+02
2.070600000000000218e+00 8.281060961316517250e+02
2.118700000000000028e+00 8.746385535069204025e+02
2.166900000000000048e+00 9.223595128700764008e+02
2.214999999999999858e+00 9.711762908951768623e+02
2.263199999999999878e+00 1.021171641699807196e+03
2.311300000000000132e+00 1.076607765777090663e+03
2.359500000000000153e+00 1.133371879537376117e+03
2.407599999999999962e+00 1.191364937737306036e+03
2.455799999999999983e+00 1.250655023502404447e+03
2.503899999999999793e+00 1.313493912917602984e+03
2.552099999999999813e+00 1.377705836267610721e+03
2.600299999999999834e+00 1.445647573905860554e+03
2.648400000000000087e+00 1.517387057763661460e+03
2.696600000000000108e+00 1.590606147305043123e+03
2.744699999999999918e+00 1.665188666483326870e+03
2.792899999999999938e+00 1.746434755620889746e+03
2.841000000000000192e+00 1.829134314193894397e+03
2.889200000000000212e+00 1.918815901108114076e+03
2.937300000000000022e+00 2.007330402925638964e+03
2.985500000000000043e+00 2.103001267808748707e+03
3.033599999999999852e+00 2.197464352863516979e+03
3.081799999999999873e+00 2.304959420850794231e+03
3.129900000000000126e+00 2.411324142229737390e+03
3.178100000000000147e+00 2.522434167233527205e+03
3.226199999999999957e+00 2.644115649463605223e+03
3.274399999999999977e+00 2.767828476676368609e+03
3.322499999999999787e+00 2.893397551655764801e+03
3.370699999999999807e+00 3.030150738283122791e+03
3.418899999999999828e+00 3.172046291575704799e+03
3.467000000000000082e+00 3.325344704441426074e+03
3.515200000000000102e+00 3.480949178755173762e+03
3.563299999999999912e+00 3.648281715810311198e+03
3.611499999999999932e+00 3.824484064698981911e+03
3.659600000000000186e+00 4.009510989633275130e+03
3.707800000000000207e+00 4.207019472817328278e+03
3.755900000000000016e+00 4.410250247836597737e+03
3.804100000000000037e+00 4.636386004788613718e+03
3.852199999999999847e+00 4.871967542320386201e+03
3.900399999999999867e+00 5.120741268108162330e+03
3.948500000000000121e+00 5.393068730399608285e+03
3.996700000000000141e+00 5.675480894491515755e+03
4.044800000000000395e+00 5.981907807547562697e+03
4.092999999999999972e+00 6.316509347479753160e+03
4.141099999999999781e+00 6.675728719785288376e+03
4.189300000000000246e+00 7.067318332629793076e+03
4.237499999999999822e+00 7.495103162147057446e+03
4.285599999999999632e+00 7.966496829355426598e+03
4.333800000000000097e+00 8.493415847093556295e+03
4.381899999999999906e+00 9.072068196824644474e+03
4.430100000000000371e+00 9.744333115547087800e+03
4.478200000000000180e+00 1.052168581344270569e+04
4.526399999999999757e+00 1.145085229204533789e+04
4.574499999999999567e+00 1.257834028276634854e+04
4.622700000000000031e+00 1.388370962987582789e+04
4.670799999999999841e+00 1.534589415728900894e+04
4.719000000000000306e+00 1.723292550194158684e+04
4.767100000000000115e+00 1.976643032491001577e+04
4.815299999999999692e+00 2.272321784734634639e+04
4.863400000000000389e+00 2.589437896542338785e+04
4.911599999999999966e+00 2.984263238429483681e+04
4.959699999999999775e+00 3.492659287026287348e+04
5.007900000000000240e+00 4.039001268302684184e+04
5.056000000000000050e+00 4.621753026828775910e+04
5.104199999999999626e+00 5.395697443080806261e+04
5.152400000000000091e+00 6.300212039040135278e+04
5.200499999999999901e+00 7.363592846851485956e+04
5.248700000000000365e+00 8.785005641473318974e+04
5.296800000000000175e+00 1.043847756035350176e+05
5.344999999999999751e+00 1.213203413173399167e+05
5.393099999999999561e+00 1.380555528295093100e+05
5.441300000000000026e+00 1.535167811792576395e+05
5.489399999999999835e+00 1.682281496653070208e+05
5.537600000000000300e+00 1.826207791505391360e+05
5.585700000000000109e+00 1.960727189601139107e+05
5.633899999999999686e+00 2.075759966007621551e+05
5.682000000000000384e+00 2.175190369880413637e+05
5.730199999999999960e+00 2.278508770138359396e+05
5.778299999999999770e+00 2.390831392002989596e+05
5.826500000000000234e+00 2.498444471702331502e+05
5.874600000000000044e+00 2.591646873281048320e+05
5.922799999999999621e+00 2.672232446330668754e+05
5.971000000000000085e+00 2.759730881663881009e+05
6.019099999999999895e+00 2.862533218358675949e+05
6.067300000000000360e+00 2.990403398149237619e+05
6.115400000000000169e+00 3.170324431552796159e+05
6.163599999999999746e+00 3.418478104344129097e+05
6.211700000000000443e+00 3.720774097436302109e+05
6.259900000000000020e+00 4.046266462269248441e+05
6.307999999999999829e+00 4.367897685988721787e+05
6.356200000000000294e+00 4.674375821161072236e+05
6.404300000000000104e+00 4.968108054789990420e+05
6.452499999999999680e+00 5.243605033947039628e+05
6.500600000000000378e+00 5.500355090280086733e+05
6.548799999999999955e+00 5.744672968040348496e+05
6.596899999999999764e+00 5.970072880957832094e+05
6.645100000000000229e+00 6.164603649899255252e+05
6.693200000000000038e+00 6.337888813697594451e+05
6.741399999999999615e+00 6.496401475126037840e+05
6.789600000000000080e+00 6.629172135982611217e+05
6.837699999999999889e+00 6.731081359656770946e+05
6.885900000000000354e+00 6.807165568690786604e+05
6.934000000000000163e+00 6.853532793134726817e+05
6.982199999999999740e+00 6.866196992629296146e+05
7.030300000000000438e+00 6.872366517583624227e+05
7.078500000000000014e+00 6.900876012588841841e+05
7.126599999999999824e+00 6.965656113729465287e+05
7.174800000000000288e+00 7.068142196998916334e+05
7.222900000000000098e+00 7.177910675369983073e+05
7.271099999999999675e+00 7.266254787037821952e+05
7.319200000000000372e+00 7.327541374919948867e+05
7.367399999999999949e+00 7.369790048300747294e+05
7.415499999999999758e+00 7.402636785910344915e+05
7.463700000000000223e+00 7.446167789007262327e+05
7.511800000000000033e+00 7.507932042561306152e+05
7.559999999999999609e+00 7.585498527401663596e+05
7.608200000000000074e+00 7.670080802880378906e+05
7.656299999999999883e+00 7.757449815032703336e+05
7.704500000000000348e+00 7.844628129070884315e+05
7.752600000000000158e+00 7.903672106170407496e+05
7.800799999999999734e+00 7.926889792324654991e+05
7.848900000000000432e+00 7.944312023827513913e+05
7.897100000000000009e+00 7.977108792924743611e+05
7.945199999999999818e+00 8.037195690343475435e+05
7.993400000000000283e+00 8.123186921754479408e+05
8.041499999999999204e+00 8.213652186575221131e+05
8.089700000000000557e+00 8.293359845172329806e+05
8.137800000000000367e+00 8.362921134068570100e+05
8.185999999999999943e+00 8.426705707926485920e+05
8.234099999999999753e+00 8.481139979403559119e+05
8.282299999999999329e+00 8.532911893675792962e+05
8.330399999999999139e+00 8.590926230071117170e+05
8.378600000000000492e+00 8.666963757805899950e+05
8.426700000000000301e+00 8.776407857747880043e+05
8.474899999999999878e+00 8.928559322814175393e+05
8.523099999999999454e+00 9.115286435832153074e+05
8.571199999999999264e+00 9.318396914242227795e+05
8.619400000000000617e+00 9.524804476653250167e+05
8.667500000000000426e+00 9.711057419512427878e+05
8.715700000000000003e+00 9.851548523289166624e+05
8.763799999999999812e+00 9.935126173035474494e+05
8.811999999999999389e+00 9.964957816044804640e+05
8.860099999999999199e+00 9.963635563228051178e+05
8.908300000000000551e+00 9.947802965736076003e+05
8.956400000000000361e+00 9.919372265061901417e+05
9.004599999999999937e+00 9.871396238375125686e+05
9.052699999999999747e+00 9.792088351243232610e+05
9.100899999999999324e+00 9.678191936267035780e+05
9.148999999999999133e+00 9.530041719067108352e+05
9.197200000000000486e+00 9.364135173067757860e+05
9.245300000000000296e+00 9.206286928804004565e+05
9.293499999999999872e+00 9.069279995962638641e+05
9.341699999999999449e+00 8.963350631363989087e+05
9.389799999999999258e+00 8.886140551033556694e+05
9.438000000000000611e+00 8.829175829267292283e+05
9.486100000000000421e+00 8.792790128618229646e+05
9.534299999999999997e+00 8.772524055501745315e+05
9.582399999999999807e+00 8.758267735627265647e+05
9.630599999999999383e+00 8.747387108840647852e+05
9.678699999999999193e+00 8.731051964315458899e+05
9.726900000000000546e+00 8.710429364366524387e+05
9.775000000000000355e+00 8.694229245609606151e+05
9.823199999999999932e+00 8.688982977964144666e+05
9.871299999999999741e+00 8.696185373169432860e+05
9.919499999999999318e+00 8.717398249090356985e+05
9.967599999999999127e+00 8.753502025610763812e+05
1.001580000000000048e+01 8.803912110106843757e+05
1.006390000000000029e+01 8.865485540814060951e+05
1.011209999999999987e+01 8.932045566478387918e+05
1.016029999999999944e+01 9.007839164777043043e+05
1.020839999999999925e+01 9.092633446903796867e+05
1.025660000000000061e+01 9.181687504541222006e+05
1.030470000000000041e+01 9.275037327524711145e+05
1.035289999999999999e+01 9.365539738622745499e+05
1.040099999999999980e+01 9.439441599858098198e+05
1.044919999999999938e+01 9.493413807767883409e+05
1.049729999999999919e+01 9.527581403065844206e+05
1.054550000000000054e+01 9.539410845925938338e+05
1.059360000000000035e+01 9.539195886087762192e+05
1.064179999999999993e+01 9.542835314431570005e+05
1.068989999999999974e+01 9.551679371759890346e+05
1.073809999999999931e+01 9.563085311620875727e+05
1.078619999999999912e+01 9.572158063591088867e+05
1.083440000000000047e+01 9.578028097399804974e+05
1.088250000000000028e+01 9.580440906182469334e+05
1.093069999999999986e+01 9.573542566234121332e+05
1.097879999999999967e+01 9.549167267102849437e+05
1.102699999999999925e+01 9.519647845570915379e+05
1.107520000000000060e+01 9.497523650744884508e+05
1.112330000000000041e+01 9.488138046571004670e+05
1.117149999999999999e+01 9.490935972451367415e+05
1.121959999999999980e+01 9.497342877127414104e+05
1.126779999999999937e+01 9.517091076450386317e+05
1.131589999999999918e+01 9.556354234702406684e+05
1.136410000000000053e+01 9.601258861917949980e+05
1.141220000000000034e+01 9.636806770312660374e+05
1.146039999999999992e+01 9.659505929292254150e+05
1.150849999999999973e+01 9.679871105566066690e+05
1.155669999999999931e+01 9.708088085417276016e+05
1.160479999999999912e+01 9.745583496224968694e+05
1.165300000000000047e+01 9.797586607464386616e+05
1.170110000000000028e+01 9.866463898421243066e+05
1.174929999999999986e+01 9.933762532787184464e+05
1.179739999999999966e+01 9.988560577548015863e+05
1.184559999999999924e+01 1.003497732977748383e+06
1.189380000000000059e+01 1.008100906028342317e+06
1.194190000000000040e+01 1.012178578673069598e+06
1.199009999999999998e+01 1.015712618934507482e+06
1.203819999999999979e+01 1.018007830897954642e+06
1.208639999999999937e+01 1.018818310608294909e+06
1.213449999999999918e+01 1.018813754303967929e+06
1.218270000000000053e+01 1.017936099499035976e+06
1.223080000000000034e+01 1.015883191844813759e+06
1.227899999999999991e+01 1.013785126145545160e+06
1.232709999999999972e+01 1.013637946919040987e+06
1.237529999999999930e+01 1.014517710288492264e+06
1.242340000000000089e+01 1.015112375195982167e+06
1.247160000000000046e+01 1.015454567644047551e+06
1.251970000000000027e+01 1.014744958171696286e+06
1.256789999999999985e+01 1.013036208717624890e+06
1.261599999999999966e+01 1.010476477129932027e+06
1.266419999999999924e+01 1.007323323847235530e+06
1.271240000000000059e+01 1.005769987437104341e+06
1.276050000000000040e+01 1.006135577500735293e+06
1.280869999999999997e+01 1.007442422356416122e+06
1.285679999999999978e+01 1.009312940757025033e+06
1.290499999999999936e+01 1.011863782670767047e+06
1.295309999999999917e+01 1.014864084105141810e+06
1.300130000000000052e+01 1.017425658369407756e+06
1.304940000000000033e+01 1.018928730193275376e+06
1.309759999999999991e+01 1.019633762215334689e+06
1.314569999999999972e+01 1.019901181183046312e+06
1.319389999999999930e+01 1.019794125382464612e+06
1.324200000000000088e+01 1.018664170276649995e+06
1.329020000000000046e+01 1.015884001130538527e+06
1.333830000000000027e+01 1.011787640320401639e+06
1.338649999999999984e+01 1.007113064511929406e+06
1.343459999999999965e+01 1.003227813089558505e+06
1.348279999999999923e+01 1.000517949807804776e+06
1.353100000000000058e+01 9.992583935540670063e+05
1.357910000000000039e+01 9.995037708464278840e+05
1.362729999999999997e+01 9.999495705068937968e+05
1.367539999999999978e+01 9.974826018899141345e+05
1.372359999999999935e+01 9.919392694637815002e+05
1.377169999999999916e+01 9.853780038366465596e+05
1.381990000000000052e+01 9.779972336162540596e+05
1.386800000000000033e+01 9.707804170505932998e+05
1.391619999999999990e+01 9.649827692967077019e+05
1.396429999999999971e+01 9.610251039538088953e+05
1.401249999999999929e+01 9.585624168398232432e+05
1.406060000000000088e+01 9.585561115027130581e+05
1.410880000000000045e+01 9.600716326875030063e+05
1.415690000000000026e+01 9.616093556755996542e+05
1.420509999999999984e+01 9.613192597268959507e+05
1.425319999999999965e+01 9.592732514716715086e+05
1.430139999999999922e+01 9.571777138675808674e+05
1.434950000000000081e+01 9.553424537262737285e+05
1.439770000000000039e+01 9.530486295253637945e+05
1.444589999999999996e+01 9.503757096004642081e+05
1.449399999999999977e+01 9.468103722367793089e+05
1.454219999999999935e+01 9.422080775464049075e+05
1.459029999999999916e+01 9.372711219370370964e+05
1.463850000000000051e+01 9.335955492526314920e+05
1.468660000000000032e+01 9.313113190449140966e+05
1.473479999999999990e+01 9.287353837857461767e+05
1.478289999999999971e+01 9.260850293656907743e+05
1.483109999999999928e+01 9.249825337017042330e+05
1.487920000000000087e+01 9.253197652947701281e+05
1.492740000000000045e+01 9.265050032808446558e+05
1.497550000000000026e+01 9.283047243930361001e+05
1.502369999999999983e+01 9.303762091566139134e+05
1.507179999999999964e+01 9.315293439006182598e+05
1.511999999999999922e+01 9.311741049436271423e+05
1.516810000000000080e+01 9.294640842775155324e+05
1.521630000000000038e+01 9.259315299107565079e+05
1.526449999999999996e+01 9.216016496391232358e+05
1.531259999999999977e+01 9.174219395813551964e+05
1.536079999999999934e+01 9.121579367077354109e+05
1.540889999999999915e+01 9.068997338829819346e+05
1.545710000000000051e+01 9.019963383119896753e+05
1.550520000000000032e+01 8.963324193280414911e+05
1.555339999999999989e+01 8.905520798811929999e+05
1.560149999999999970e+01 8.856626187591679627e+05
1.564969999999999928e+01 8.814087927040314535e+05
1.569780000000000086e+01 8.772497101866506273e+05
1.574600000000000044e+01 8.730530469419910805e+05
1.579410000000000025e+01 8.684965374287066516e+05
1.584229999999999983e+01 8.636768908384593669e+05
1.589039999999999964e+01 8.582731828515341040e+05
1.593859999999999921e+01 8.525334340897648362e+05
1.598670000000000080e+01 8.470805202626712853e+05
1.603490000000000038e+01 8.414654884576033801e+05
1.608310000000000173e+01 8.356056181632821681e+05
1.613119999999999976e+01 8.305424243628240656e+05
1.617940000000000111e+01 8.259192370651483070e+05
1.622749999999999915e+01 8.207788175578647060e+05
1.627570000000000050e+01 8.151815825774426339e+05
1.632379999999999853e+01 8.093592271269714693e+05
1.637199999999999989e+01 8.046990187878367724e+05
1.642010000000000147e+01 8.023417064839248778e+05
1.646829999999999927e+01 8.019146633368387120e+05
1.651640000000000086e+01 8.015063377776260022e+05
1.656459999999999866e+01 7.997098011495617684e+05
1.661270000000000024e+01 7.969314450550358742e+05
1.666090000000000160e+01 7.946645976666572969e+05
1.670899999999999963e+01 7.937432396150900749e+05
1.675720000000000098e+01 7.946692614637316437e+05
1.680529999999999902e+01 7.977581670616585761e+05
1.685350000000000037e+01 8.030884693209953839e+05
1.690170000000000172e+01 8.091652332279616967e+05
1.694979999999999976e+01 8.142195758669286733e+05
1.699800000000000111e+01 8.169463296023727162e+05
1.704609999999999914e+01 8.168869430592926219e+05
1.709430000000000049e+01 8.149480181847352069e+05
1.714239999999999853e+01 8.118188915525210323e+05
1.719059999999999988e+01 8.072758659718871349e+05
1.723870000000000147e+01 8.017976258680988103e+05
1.728689999999999927e+01 7.965671240184950875e+05
1.733500000000000085e+01 7.920338921653478174e+05
1.738319999999999865e+01 7.878273786035109079e+05
1.743130000000000024e+01 7.840012687243992696e+05
1.747950000000000159e+01 7.801797035799826263e+05
1.752759999999999962e+01 7.757366427621333860e+05
1.757580000000000098e+01 7.702317095758190844e+05
1.762389999999999901e+01 7.632999335390654160e+05
1.767210000000000036e+01 7.554341831424674019e+05
1.772019999999999840e+01 7.476865871892411960e+05
1.776839999999999975e+01 7.409822764877768932e+05
1.781660000000000110e+01 7.356314952150291065e+05
1.786469999999999914e+01 7.316257994109091815e+05
1.791290000000000049e+01 7.281625661718314514e+05
1.796099999999999852e+01 7.246082303166119382e+05
1.800919999999999987e+01 7.214976703329896554e+05
1.805730000000000146e+01 7.179091777762254933e+05
1.810549999999999926e+01 7.131482379452915629e+05
1.815360000000000085e+01 7.081442236112379469e+05
1.820179999999999865e+01 7.036965454638286028e+05
1.824990000000000023e+01 7.017898021004770417e+05
1.829810000000000159e+01 7.028348952042266028e+05
1.834619999999999962e+01 7.062141586400568485e+05
1.839440000000000097e+01 7.115697604322560364e+05
1.844249999999999901e+01 7.181504231422391022e+05
1.849070000000000036e+01 7.245234160694408929e+05
1.853879999999999839e+01 7.308174798703269335e+05
1.858699999999999974e+01 7.378492385855583707e+05
1.863520000000000110e+01 7.448639335297117941e+05
1.868329999999999913e+01 7.495560291523633059e+05
1.873150000000000048e+01 7.500502367123621516e+05
1.877959999999999852e+01 7.448729637038108194e+05
1.882779999999999987e+01 7.348993948985486059e+05
1.887590000000000146e+01 7.237351543608083157e+05
1.892409999999999926e+01 7.147991416020991746e+05
1.897220000000000084e+01 7.100454200835106894e+05
1.902039999999999864e+01 7.109135443324978696e+05
1.906850000000000023e+01 7.179551003199362895e+05
1.911670000000000158e+01 7.293894081498413580e+05
1.916479999999999961e+01 7.424653687504966510e+05
