# energy(eV) alpha
0.000000000000000000e+00 0.000000000000000000e+00
3.790000000000000313e-02 7.325168918239474136e-01
7.570000000000000340e-02 2.859542728514558263e+00
1.136000000000000065e-01 6.486087872403769161e+00
1.514999999999999958e-01 1.157625851575811637e+01
1.894000000000000128e-01 1.829509334772886575e+01
2.272000000000000131e-01 2.633032391623748580e+01
2.651000000000000023e-01 3.560160024998159400e+01
3.029999999999999916e-01 4.679532769439096995e+01
3.407999999999999918e-01 5.949209155573315400e+01
3.786999999999999811e-01 7.372227268229575259e+01
4.166000000000000258e-01 8.910289262074341821e+01
4.545000000000000151e-01 1.067235886708410533e+02
4.923000000000000154e-01 1.258925405335111805e+02
5.302000000000000046e-01 1.461887370633708372e+02
5.681000000000000494e-01 1.684803060003993096e+02
6.058999999999999941e-01 1.922968537799264652e+02
6.438000000000000389e-01 2.182599200187396207e+02
6.816999999999999726e-01 2.464294546702932962e+02
7.195000000000000284e-01 2.756024443018371812e+02
7.573999999999999622e-01 3.070675971615077060e+02
7.953000000000000069e-01 3.408826583808288433e+02
8.332000000000000517e-01 3.771307918761401083e+02
8.709999999999999964e-01 4.143436735961478234e+02
9.089000000000000412e-01 4.548680455023530840e+02
9.467999999999999750e-01 4.972029821944542505e+02
9.846000000000000307e-01 5.412803980983874226e+02
1.022499999999999964e+00 5.889648066318495694e+02
1.060400000000000009e+00 6.394698304310460344e+02
1.098300000000000054e+00 6.919167013115173859e+02
1.136100000000000110e+00 7.481912879331346176e+02
1.173999999999999932e+00 8.065715436089521972e+02
1.211899999999999977e+00 8.690607715584760626e+02
1.249700000000000033e+00 9.335964541361790907e+02
1.287600000000000078e+00 1.002523460417532078e+03
1.325499999999999901e+00 1.073658526732966493e+03
1.363399999999999945e+00 1.151636998709491991e+03
1.401200000000000001e+00 1.230736637611310698e+03
1.439100000000000046e+00 1.315901482250596928e+03
1.477000000000000091e+00 1.404791539881548943e+03
1.514799999999999924e+00 1.501206507614337397e+03
1.552699999999999969e+00 1.600407670952690296e+03
1.590600000000000014e+00 1.703590417940717998e+03
1.628500000000000059e+00 1.816314852590854798e+03
1.666299999999999892e+00 1.933225474733993451e+03
1.704199999999999937e+00 2.057449108082822931e+03
1.742099999999999982e+00 2.189073239570290752e+03
1.779900000000000038e+00 2.329658618269266753e+03
1.817800000000000082e+00 2.478202426063205621e+03
1.855699999999999905e+00 2.637835563972219006e+03
1.893599999999999950e+00 2.804155238221787386e+03
1.931400000000000006e+00 2.983504143628768361e+03
1.969300000000000050e+00 3.174894991013271920e+03
2.007200000000000095e+00 3.380131920094504039e+03
2.044999999999999929e+00 3.599375697989980836e+03
2.082899999999999974e+00 3.834961821253512881e+03
2.120800000000000018e+00 4.088817627768768943e+03
2.158599999999999852e+00 4.362893558335719717e+03
2.196499999999999897e+00 4.658021408925817013e+03
2.234399999999999942e+00 4.978014128946930214e+03
2.272299999999999986e+00 5.328789810692705032e+03
2.310099999999999820e+00 5.708877428871383927e+03
2.347999999999999865e+00 6.126709695370458576e+03
2.385899999999999910e+00 6.588310466377481134e+03
2.423700000000000188e+00 7.097948591326043243e+03
2.461599999999999788e+00 7.664529635496695846e+03
2.499499999999999833e+00 8.302172473664049903e+03
2.537399999999999878e+00 9.019475190152903451e+03
2.575200000000000156e+00 9.834742863957068039e+03
2.613100000000000200e+00 1.077332833133349777e+04
2.650999999999999801e+00 1.186392577023301601e+04
2.688800000000000079e+00 1.315110580956804733e+04
2.726700000000000124e+00 1.469724424625105166e+04
2.764600000000000168e+00 1.659404448638886242e+04
2.802500000000000213e+00 1.897839349389357812e+04
2.840300000000000047e+00 2.207089298327840152e+04
2.878200000000000092e+00 2.620291024254015065e+04
2.916100000000000136e+00 3.180396323130232122e+04
2.953899999999999970e+00 3.921990287733013975e+04
2.991800000000000015e+00 4.833847706135391491e+04
3.029700000000000060e+00 5.864293161690932902e+04
3.067600000000000104e+00 6.991663030330948823e+04
3.105399999999999938e+00 8.228496921816485701e+04
3.143299999999999983e+00 9.591233969318759046e+04
3.181200000000000028e+00 1.109029090752253978e+05
3.218999999999999861e+00 1.271179981789745943e+05
3.256899999999999906e+00 1.441089505043950921e+05
3.294799999999999951e+00 1.613279154731351300e+05
3.332699999999999996e+00 1.778377500233253522e+05
3.370499999999999829e+00 1.923245629584780254e+05
3.408399999999999874e+00 2.040905400561251445e+05
3.446299999999999919e+00 2.136882109225899039e+05
3.484100000000000197e+00 2.224789488646184327e+05
3.521999999999999797e+00 2.304534942028676451e+05
3.559899999999999842e+00 2.369326106223777751e+05
3.597700000000000120e+00 2.424846219941015006e+05
3.635600000000000165e+00 2.489394910192522220e+05
3.673500000000000210e+00 2.575581349422521016e+05
3.711399999999999810e+00 2.679391560332623776e+05
3.749200000000000088e+00 2.788557852237073821e+05
3.787100000000000133e+00 2.891044033152114134e+05
3.825000000000000178e+00 2.979471795744571136e+05
3.862800000000000011e+00 3.054880025151552400e+05
3.900700000000000056e+00 3.119882276149610989e+05
3.938600000000000101e+00 3.178169702548130881e+05
3.976500000000000146e+00 3.238671685028563370e+05
4.014300000000000423e+00 3.301324309772385168e+05
4.052200000000000024e+00 3.353687442704245914e+05
4.090099999999999625e+00 3.387125914357461734e+05
4.127900000000000347e+00 3.405386431186185218e+05
4.165799999999999947e+00 3.413651748338154866e+05
4.203700000000000436e+00 3.417080507294139825e+05
4.241600000000000037e+00 3.426835433238236001e+05
4.279399999999999871e+00 3.453635891288521816e+05
4.317300000000000360e+00 3.502459009342057398e+05
4.355199999999999960e+00 3.574662519492350402e+05
4.392999999999999794e+00 3.661579236102550640e+05
4.430900000000000283e+00 3.753500815786587191e+05
4.468799999999999883e+00 3.842902530841497937e+05
4.506700000000000372e+00 3.924887484167668736e+05
4.544500000000000206e+00 3.995933932656187681e+05
4.582399999999999807e+00 4.053367965599924792e+05
4.620300000000000296e+00 4.095922982383691124e+05
4.658100000000000129e+00 4.124819019781095558e+05
4.695999999999999730e+00 4.146826839161671815e+05
4.733900000000000219e+00 4.170695311693847761e+05
4.771799999999999820e+00 4.196939949623850989e+05
4.809599999999999653e+00 4.218301808247553417e+05
4.847500000000000142e+00 4.230070515228055301e+05
4.885399999999999743e+00 4.231809033168249298e+05
4.923199999999999577e+00 4.230425655126650236e+05
4.961100000000000065e+00 4.233164239704991342e+05
4.998999999999999666e+00 4.237327309033625061e+05
5.036800000000000388e+00 4.234183434073730605e+05
5.074699999999999989e+00 4.225625689460880822e+05
5.112599999999999589e+00 4.221717013800268760e+05
5.150500000000000078e+00 4.229064383452812326e+05
5.188299999999999912e+00 4.245709723617703421e+05
5.226200000000000401e+00 4.266856799657841329e+05
5.264100000000000001e+00 4.288647388038820936e+05
5.301899999999999835e+00 4.313894197511124075e+05
5.339800000000000324e+00 4.349647215203519445e+05
5.377699999999999925e+00 4.394601702080948162e+05
5.415600000000000414e+00 4.445860205814302317e+05
5.453400000000000247e+00 4.501968308854449424e+05
5.491299999999999848e+00 4.558711842031773413e+05
5.529200000000000337e+00 4.610404695107976440e+05
5.567000000000000171e+00 4.652806502447317471e+05
5.604899999999999771e+00 4.685121717073901091e+05
5.642800000000000260e+00 4.710032929054400884e+05
5.680699999999999861e+00 4.733759732144409209e+05
5.718499999999999694e+00 4.761168358128331602e+05
5.756400000000000183e+00 4.796474873684842605e+05
5.794299999999999784e+00 4.836781420490012970e+05
5.832099999999999618e+00 4.865838873547156691e+05
5.870000000000000107e+00 4.877918151869344874e+05
5.907899999999999707e+00 4.879995913744448917e+05
5.945800000000000196e+00 4.882070437895650975e+05
5.983600000000000030e+00 4.894233945200726157e+05
6.021499999999999631e+00 4.921347426837888197e+05
6.059400000000000119e+00 4.955576303252860089e+05
6.097199999999999953e+00 4.988506196115380735e+05
6.135100000000000442e+00 5.020975141353507061e+05
6.173000000000000043e+00 5.055837138273313758e+05
6.210899999999999643e+00 5.094002651819501189e+05
6.248700000000000365e+00 5.133558295830568532e+05
6.286599999999999966e+00 5.175001243013606290e+05
6.324499999999999567e+00 5.219639581823578919e+05
6.362300000000000288e+00 5.273852298570607090e+05
6.400199999999999889e+00 5.342830410382888513e+05
6.438100000000000378e+00 5.425137936155854259e+05
6.475900000000000212e+00 5.521203398603108944e+05
6.513799999999999812e+00 5.633445354617103003e+05
6.551700000000000301e+00 5.759884713139807573e+05
6.589599999999999902e+00 5.895675522494184552e+05
6.627399999999999736e+00 6.036460307690248592e+05
6.665300000000000225e+00 6.179385903254655423e+05
6.703199999999999825e+00 6.321314361333562993e+05
6.740999999999999659e+00 6.458435998607724905e+05
6.778900000000000148e+00 6.586659125684584724e+05
6.816799999999999748e+00 6.703317515170210972e+05
6.854700000000000237e+00 6.812838683913928689e+05
6.892500000000000071e+00 6.915028455911232159e+05
6.930399999999999672e+00 6.999080492341531208e+05
6.968300000000000161e+00 7.066031652618797962e+05
7.006099999999999994e+00 7.123270106020773528e+05
7.043999999999999595e+00 7.169058434418401448e+05
7.081900000000000084e+00 7.204722170589504531e+05
7.119799999999999685e+00 7.232815663437830517e+05
7.157600000000000406e+00 7.250887800768783782e+05
7.195500000000000007e+00 7.257105566180117894e+05
7.233399999999999608e+00 7.261141601482515689e+05
7.271200000000000330e+00 7.276428557175510796e+05
7.309099999999999930e+00 7.301479542654728284e+05
7.347000000000000419e+00 7.327640237117352663e+05
7.384900000000000020e+00 7.361487596535594203e+05
7.422699999999999854e+00 7.408230490475154947e+05
7.460600000000000342e+00 7.452236410443109926e+05
7.498499999999999943e+00 7.476866953706723871e+05
7.536299999999999777e+00 7.491360029346309602e+05
7.574200000000000266e+00 7.509886407392694382e+05
7.612099999999999866e+00 7.527271776574032847e+05
7.650000000000000355e+00 7.533596594372697873e+05
7.687800000000000189e+00 7.531137406577368965e+05
7.725699999999999790e+00 7.524192187632453861e+05
7.763600000000000279e+00 7.514000058204456000e+05
7.801400000000000112e+00 7.505754734331299551e+05
7.839299999999999713e+00 7.507252856291445205e+05
7.877200000000000202e+00 7.519941242104520788e+05
7.915000000000000036e+00 7.534317394935433986e+05
7.952899999999999636e+00 7.542747388108310988e+05
7.990800000000000125e+00 7.548785107812031638e+05
8.028700000000000614e+00 7.560267505082564894e+05
8.066499999999999559e+00 7.577479921989297727e+05
8.104400000000000048e+00 7.589644489906755043e+05
8.142300000000000537e+00 7.596042890969009604e+05
8.180099999999999483e+00 7.607732796447387664e+05
8.217999999999999972e+00 7.627783656408035895e+05
8.255900000000000460e+00 7.652772298559163464e+05
8.293799999999999173e+00 7.680195449007623829e+05
8.331599999999999895e+00 7.708133471271232702e+05
8.369500000000000384e+00 7.735466879484533565e+05
8.407400000000000873e+00 7.763226723815492587e+05
8.445199999999999818e+00 7.795965995869704057e+05
8.483100000000000307e+00 7.836606247647047276e+05
8.521000000000000796e+00 7.880733296422912972e+05
8.558899999999999508e+00 7.918638374749799259e+05
8.596700000000000230e+00 7.945556894855831051e+05
8.634600000000000719e+00 7.966582607224795502e+05
8.672499999999999432e+00 7.987370767272171797e+05
8.710300000000000153e+00 8.010835120970257558e+05
8.748200000000000642e+00 8.038849624991477467e+05
8.786099999999999355e+00 8.075506624022407923e+05
8.823999999999999844e+00 8.121687837726249127e+05
8.861800000000000566e+00 8.176477065669943113e+05
8.899699999999999278e+00 8.238219262044997886e+05
8.937599999999999767e+00 8.303384671743843937e+05
8.975400000000000489e+00 8.370382721876226133e+05
9.013299999999999201e+00 8.440788310951611493e+05
9.051199999999999690e+00 8.515264484921257244e+05
9.089100000000000179e+00 8.592459038096541772e+05
9.126899999999999125e+00 8.669295585736220237e+05
9.164799999999999613e+00 8.743995071801650338e+05
9.202700000000000102e+00 8.813849568898672005e+05
9.240500000000000824e+00 8.876558938851518324e+05
9.278399999999999537e+00 8.934038022448961856e+05
9.316300000000000026e+00 8.989100524644498946e+05
9.354100000000000747e+00 9.042929964025005465e+05
9.391999999999999460e+00 9.096723355692272307e+05
9.429899999999999949e+00 9.147902041822992032e+05
9.467800000000000438e+00 9.190176141456693877e+05
9.505599999999999383e+00 9.223192742944222409e+05
9.543499999999999872e+00 9.252880225298269652e+05
9.581400000000000361e+00 9.286783234757508617e+05
9.619199999999999307e+00 9.327283943099704338e+05
9.657099999999999795e+00 9.368341490752494428e+05
9.695000000000000284e+00 9.400652285207551904e+05
9.732900000000000773e+00 9.422383854711644817e+05
9.770699999999999719e+00 9.443653892422072822e+05
9.808600000000000207e+00 9.470494867200613953e+05
9.846500000000000696e+00 9.495974478206986096e+05
9.884299999999999642e+00 9.516646897363836179e+05
9.922200000000000131e+00 9.537966472474555485e+05
9.960100000000000620e+00 9.563664438730594702e+05
9.997999999999999332e+00 9.588391170507943025e+05
1.003580000000000005e+01 9.608016252924720757e+05
1.007370000000000054e+01 9.625199599569442216e+05
1.011159999999999926e+01 9.642049777673005592e+05
1.014939999999999998e+01 9.656987847134661861e+05
1.018730000000000047e+01 9.665217762510590255e+05
1.022519999999999918e+01 9.668679168937149225e+05
1.026309999999999967e+01 9.674045309652097058e+05
1.030090000000000039e+01 9.683424256804485340e+05
1.033880000000000088e+01 9.693123411027893890e+05
1.037669999999999959e+01 9.697418635309855454e+05
1.041450000000000031e+01 9.696676198595755268e+05
1.045240000000000080e+01 9.691556536371139809e+05
1.049029999999999951e+01 9.687344857543515973e+05
1.052820000000000000e+01 9.692670595364008332e+05
1.056600000000000072e+01 9.703575548487604829e+05
1.060389999999999944e+01 9.708975573667908320e+05
1.064179999999999993e+01 9.705683776121140691e+05
1.067960000000000065e+01 9.697921848737429827e+05
1.071749999999999936e+01 9.690639907994522946e+05
1.075539999999999985e+01 9.689051058144525159e+05
1.079320000000000057e+01 9.692891305081654573e+05
1.083109999999999928e+01 9.694250529977598926e+05
1.086899999999999977e+01 9.691484888357816963e+05
1.090690000000000026e+01 9.686670279674864141e+05
1.094469999999999921e+01 9.679318357981137233e+05
1.098259999999999970e+01 9.668892435268465197e+05
1.102050000000000018e+01 9.658148535964537878e+05
1.105829999999999913e+01 9.646927843944871565e+05
1.109619999999999962e+01 9.632927947271044832e+05
1.113410000000000011e+01 9.615628302282735240e+05
1.117200000000000060e+01 9.595775265380508499e+05
1.120979999999999954e+01 9.568634513043154730e+05
1.124770000000000003e+01 9.534895434794604080e+05
1.128560000000000052e+01 9.502251923986204201e+05
1.132339999999999947e+01 9.473437297450900078e+05
1.136129999999999995e+01 9.444496214364327025e+05
1.139920000000000044e+01 9.408832250599852996e+05
1.143709999999999916e+01 9.363300000053856056e+05
1.147489999999999988e+01 9.312327578068735311e+05
1.151280000000000037e+01 9.263444090095262509e+05
1.155070000000000086e+01 9.220955566162923351e+05
1.158849999999999980e+01 9.183873030653841561e+05
1.162640000000000029e+01 9.149147682153629139e+05
1.166430000000000078e+01 9.114854091525470139e+05
1.170219999999999949e+01 9.082357098579817684e+05
1.174000000000000021e+01 9.047468952776211081e+05
1.177790000000000070e+01 9.008504060076714959e+05
1.181579999999999941e+01 8.970115842786566354e+05
1.185360000000000014e+01 8.938901350070734043e+05
1.189150000000000063e+01 8.915084812973452499e+05
1.192939999999999934e+01 8.892918941770272795e+05
1.196729999999999983e+01 8.869542285851340275e+05
1.200510000000000055e+01 8.848201226126831025e+05
1.204299999999999926e+01 8.833173834191622445e+05
1.208089999999999975e+01 8.820350042255133158e+05
1.211870000000000047e+01 8.804876659380608471e+05
1.215659999999999918e+01 8.785982725232808152e+05
1.219449999999999967e+01 8.765399586284067482e+05
1.223230000000000040e+01 8.741198327567987144e+05
1.227020000000000088e+01 8.715114811421202030e+05
1.230809999999999960e+01 8.689671382014763076e+05
1.234600000000000009e+01 8.665543007979114773e+05
1.238380000000000081e+01 8.642013088964273920e+05
1.242169999999999952e+01 8.615259585845385445e+05
1.245960000000000001e+01 8.582343693396048620e+05
1.249740000000000073e+01 8.543036060807715403e+05
1.253529999999999944e+01 8.499459099126817891e+05
1.257319999999999993e+01 8.450209349812443834e+05
1.261110000000000042e+01 8.397185644389885711e+05
1.264889999999999937e+01 8.349164128700705478e+05
1.268679999999999986e+01 8.312518202465265058e+05
1.272470000000000034e+01 8.282691042364171008e+05
1.276249999999999929e+01 8.255046462192933541e+05
1.280039999999999978e+01 8.228809070029832656e+05
1.283830000000000027e+01 8.204270076424033614e+05
1.287620000000000076e+01 8.181160240278792335e+05
1.291399999999999970e+01 8.157508181532949675e+05
1.295190000000000019e+01 8.130090572923941072e+05
1.298980000000000068e+01 8.099523660782603547e+05
1.302759999999999962e+01 8.070127761667589657e+05
1.306550000000000011e+01 8.044754180609700270e+05
1.310340000000000060e+01 8.021269750304353656e+05
1.314129999999999932e+01 7.996046608912957599e+05
1.317910000000000004e+01 7.966454456326727523e+05
1.321700000000000053e+01 7.934275995968526695e+05
1.325489999999999924e+01 7.903313904465911910e+05
1.329269999999999996e+01 7.874103557660636725e+05
1.333060000000000045e+01 7.846687728093676269e+05
1.336849999999999916e+01 7.817109837617865996e+05
1.340639999999999965e+01 7.781401579472640296e+05
1.344420000000000037e+01 7.738763368133330951e+05
1.348210000000000086e+01 7.692018899519357365e+05
1.351999999999999957e+01 7.643830527960779145e+05
1.355780000000000030e+01 7.598077832358897431e+05
1.359570000000000078e+01 7.553775977476538392e+05
1.363359999999999950e+01 7.512089450665093027e+05
1.367140000000000022e+01 7.472714571383750299e+05
1.370930000000000071e+01 7.434388453024817863e+05
1.374719999999999942e+01 7.396300099572921172e+05
1.378509999999999991e+01 7.361013056304106722e+05
1.382290000000000063e+01 7.330231254444788210e+05
1.386079999999999934e+01 7.304256151910554618e+05
1.389869999999999983e+01 7.280244864653768018e+05
1.393650000000000055e+01 7.258221737220513169e+05
1.397439999999999927e+01 7.240609203905079048e+05
1.401229999999999976e+01 7.229154318388062529e+05
1.405020000000000024e+01 7.223121487966241548e+05
1.408799999999999919e+01 7.219879979181751842e+05
1.412589999999999968e+01 7.218444405532332603e+05
1.416380000000000017e+01 7.217959804366892204e+05
1.420159999999999911e+01 7.215800341712931404e+05
1.423949999999999960e+01 7.208573089622291736e+05
1.427740000000000009e+01 7.194969024696886772e+05
1.431530000000000058e+01 7.175560078995489748e+05
1.435309999999999953e+01 7.150823261469567660e+05
1.439100000000000001e+01 7.121788186330414610e+05
1.442890000000000050e+01 7.093158538619396277e+05
1.446669999999999945e+01 7.067780075689046644e+05
1.450459999999999994e+01 7.044939726661520544e+05
1.454250000000000043e+01 7.023758406572417589e+05
1.458039999999999914e+01 7.003613890963050071e+05
1.461819999999999986e+01 6.981588183217861224e+05
1.465610000000000035e+01 6.957284147314915899e+05
1.469400000000000084e+01 6.933774090968844248e+05
1.473179999999999978e+01 6.911960796386928996e+05
1.476970000000000027e+01 6.888295148736061528e+05
1.480760000000000076e+01 6.861918973845141008e+05
1.484549999999999947e+01 6.835201526088374667e+05
1.488330000000000020e+01 6.812212764797230484e+05
1.492120000000000068e+01 6.789476072783918353e+05
1.495909999999999940e+01 6.759330459481602302e+05
1.499690000000000012e+01 6.718035961362173548e+05
1.503480000000000061e+01 6.672604553956385935e+05
1.507269999999999932e+01 6.630068439829251729e+05
