# energy(eV) alpha
0.000000000000000000e+00 0.000000000000000000e+00
4.499999999999999833e-02 5.010528380323864273e-01
8.989999999999999380e-02 2.001903907727669463e+00
1.348999999999999921e-01 4.505659352799047390e+00
1.799000000000000044e-01 8.010739974427377064e+00
2.247999999999999998e-01 1.251109723126837281e+01
2.697999999999999843e-01 1.801593521469228776e+01
3.148000000000000242e-01 2.451985168358611844e+01
3.597000000000000197e-01 3.268007963217651479e+01
4.047000000000000042e-01 4.126123338839501997e+01
4.496999999999999886e-01 5.083742640257220557e+01
4.945999999999999841e-01 6.185323457681612069e+01
5.395999999999999686e-01 7.345590335774480195e+01
5.846000000000000085e-01 8.658968405405059343e+01
6.294999999999999485e-01 1.007786119601399974e+02
6.744999999999999885e-01 1.154261782409513870e+02
7.195000000000000284e-01 1.317218581793267731e+02
7.643999999999999684e-01 1.497687202433066034e+02
8.094000000000000083e-01 1.682270697273578719e+02
8.544000000000000483e-01 1.885316554932705628e+02
8.992999999999999883e-01 2.091174947456797781e+02
9.443000000000000282e-01 2.316468641516593152e+02
9.892999999999999572e-01 2.562146120425280742e+02
1.034200000000000008e+00 2.810077469959452969e+02
1.079199999999999937e+00 3.059525213933488885e+02
1.124200000000000088e+00 3.339952857806537168e+02
1.169100000000000028e+00 3.632012248223556981e+02
1.214099999999999957e+00 3.936190920070854986e+02
1.259100000000000108e+00 4.252108700651143067e+02
1.304000000000000048e+00 4.615327854751515133e+02
1.348999999999999977e+00 4.955834194358374702e+02
1.393999999999999906e+00 5.333421749509267329e+02
1.438900000000000068e+00 5.710598504599970511e+02
1.483899999999999997e+00 6.113962972981926214e+02
1.528899999999999926e+00 6.544218514688594723e+02
1.573800000000000088e+00 6.987639734571935151e+02
1.618800000000000017e+00 7.445072450305721077e+02
1.663799999999999946e+00 7.915924132660419446e+02
1.708700000000000108e+00 8.415166243876997214e+02
1.753700000000000037e+00 8.944793771559251354e+02
1.798699999999999966e+00 9.489078283802977012e+02
1.843599999999999905e+00 1.006404382906585283e+03
1.888600000000000056e+00 1.065466871989503488e+03
1.933599999999999985e+00 1.127779737963684738e+03
1.978499999999999925e+00 1.193378007450569157e+03
2.023499999999999854e+00 1.260651282223719136e+03
2.068499999999999783e+00 1.331396424351512223e+03
2.113500000000000156e+00 1.405684360165647604e+03
2.158399999999999874e+00 1.481624880704756833e+03
2.203399999999999803e+00 1.561299179553714566e+03
2.248400000000000176e+00 1.644716770413120685e+03
2.293299999999999894e+00 1.733942353943171611e+03
2.338299999999999823e+00 1.825141445323068638e+03
2.383300000000000196e+00 1.920358186208180541e+03
2.428199999999999914e+00 2.023853554795977516e+03
2.473199999999999843e+00 2.129544460890454957e+03
2.518200000000000216e+00 2.237280208160534130e+03
2.563099999999999934e+00 2.353731825385381399e+03
2.608099999999999863e+00 2.477065922087679610e+03
2.653099999999999792e+00 2.602685197343456821e+03
2.697999999999999954e+00 2.735146912850827903e+03
2.742999999999999883e+00 2.879612370187828219e+03
2.787999999999999812e+00 3.026596133931134318e+03
2.832899999999999974e+00 3.183332765248615488e+03
2.877899999999999903e+00 3.345237456716066390e+03
2.922899999999999832e+00 3.522357868640294328e+03
2.967799999999999994e+00 3.704734124601056010e+03
3.012799999999999923e+00 3.900371113529346985e+03
3.057799999999999851e+00 4.109372983599685540e+03
3.102700000000000014e+00 4.329278989388056289e+03
3.147699999999999942e+00 4.563147301914174022e+03
3.192699999999999871e+00 4.811033025862272552e+03
3.237600000000000033e+00 5.081247631325191833e+03
3.282599999999999962e+00 5.366159890245350653e+03
3.327599999999999891e+00 5.674121223350756736e+03
3.372500000000000053e+00 6.008182695567544215e+03
3.417499999999999982e+00 6.368998947749588297e+03
3.462499999999999911e+00 6.762447218973859890e+03
3.507400000000000073e+00 7.191673878372238505e+03
3.552400000000000002e+00 7.663213312442310780e+03
3.597399999999999931e+00 8.194999201769480351e+03
3.642300000000000093e+00 8.790420871186217482e+03
3.687300000000000022e+00 9.474426137605354597e+03
3.732299999999999951e+00 1.028079800985241127e+04
3.777200000000000113e+00 1.124721404046517455e+04
3.822200000000000042e+00 1.236119828358677114e+04
3.867199999999999971e+00 1.359216568549548902e+04
3.912100000000000133e+00 1.506400328275760512e+04
3.957100000000000062e+00 1.700918866117591460e+04
4.002100000000000435e+00 1.938778380443542846e+04
4.046999999999999709e+00 2.180367626953912259e+04
4.091999999999999638e+00 2.432213060772405152e+04
4.136999999999999567e+00 2.766762348665748505e+04
4.181899999999999729e+00 3.199012218572123311e+04
4.226899999999999658e+00 3.681815258407251531e+04
4.271899999999999586e+00 4.212768810517577367e+04
4.316799999999999748e+00 4.899669743133565498e+04
4.361799999999999677e+00 5.822862638149881968e+04
4.406799999999999606e+00 6.898155197487256373e+04
4.451699999999999768e+00 7.982182245934189996e+04
4.496699999999999697e+00 9.021174764976887673e+04
4.541699999999999626e+00 1.003128354934929812e+05
4.586599999999999788e+00 1.118487011425660021e+05
4.631599999999999717e+00 1.261473661403801816e+05
4.676599999999999646e+00 1.436385992026316235e+05
4.721499999999999808e+00 1.642878761837437050e+05
4.766499999999999737e+00 1.874655072814190062e+05
4.811499999999999666e+00 2.117842872938179062e+05
4.856399999999999828e+00 2.346314259392897366e+05
4.901399999999999757e+00 2.551484107671817765e+05
4.946399999999999686e+00 2.749573783716309117e+05
4.991299999999999848e+00 2.944119375870533404e+05
5.036299999999999777e+00 3.123286434451049427e+05
5.081299999999999706e+00 3.282535619936331059e+05
5.126199999999999868e+00 3.432274341966132051e+05
5.171199999999999797e+00 3.575275990288695320e+05
5.216199999999999726e+00 3.702236304744119407e+05
5.261099999999999888e+00 3.804991696048917365e+05
5.306099999999999817e+00 3.881989003505907604e+05
5.351099999999999746e+00 3.945960311628285563e+05
5.395999999999999908e+00 4.014436641929058242e+05
5.440999999999999837e+00 4.086287064968387713e+05
5.485999999999999766e+00 4.160759742131934618e+05
5.530899999999999928e+00 4.238042643246379448e+05
5.575899999999999856e+00 4.314403210978818825e+05
5.620899999999999785e+00 4.390537155987237347e+05
5.665799999999999947e+00 4.472496086839173804e+05
5.710799999999999876e+00 4.569683892687903135e+05
5.755799999999999805e+00 4.688143204881495913e+05
5.800699999999999967e+00 4.823203716616297606e+05
5.845699999999999896e+00 4.960006029404775472e+05
5.890699999999999825e+00 5.085016331381577766e+05
5.935599999999999987e+00 5.201404926189795369e+05
5.980599999999999916e+00 5.320418360824623378e+05
6.025599999999999845e+00 5.449283816376762697e+05
6.070500000000000007e+00 5.587497756240665913e+05
6.115499999999999936e+00 5.733130444499490550e+05
6.160499999999999865e+00 5.885623465636515757e+05
6.205400000000000027e+00 6.042881837427562568e+05
6.250399999999999956e+00 6.211034441105731530e+05
6.295399999999999885e+00 6.390654021743553458e+05
6.340399999999999814e+00 6.574030976180309663e+05
6.385299999999999976e+00 6.761065031518508913e+05
6.430299999999999905e+00 6.956073245243155397e+05
6.475299999999999834e+00 7.152993233813396655e+05
6.520199999999999996e+00 7.339320573315962683e+05
6.565199999999999925e+00 7.516600525023859227e+05
6.610199999999999854e+00 7.689100235755399335e+05
6.655100000000000016e+00 7.856933969245793996e+05
6.700099999999999945e+00 8.016368975938978838e+05
6.745099999999999874e+00 8.153634926517845597e+05
6.790000000000000036e+00 8.254463978163391585e+05
6.834999999999999964e+00 8.323148911967076128e+05
6.879999999999999893e+00 8.371416707996582845e+05
6.924900000000000055e+00 8.405229217167679453e+05
6.969899999999999984e+00 8.434977217567428015e+05
7.014899999999999913e+00 8.463653326716015581e+05
7.059800000000000075e+00 8.488365450685728574e+05
7.104800000000000004e+00 8.514498037345178891e+05
7.149799999999999933e+00 8.551565065177617362e+05
7.194700000000000095e+00 8.594845679652015679e+05
7.239700000000000024e+00 8.632057840725163696e+05
7.284699999999999953e+00 8.666746093992649112e+05
7.329600000000000115e+00 8.699171106973682763e+05
7.374600000000000044e+00 8.723413983440570300e+05
7.419599999999999973e+00 8.747488886524367845e+05
7.464500000000000135e+00 8.779948853524829028e+05
7.509500000000000064e+00 8.818278191232825629e+05
7.554499999999999993e+00 8.860500675595812500e+05
7.599400000000000155e+00 8.909116656659494620e+05
7.644400000000000084e+00 8.960067659349878086e+05
7.689400000000000013e+00 9.002932840205418179e+05
7.734300000000000175e+00 9.035353187027388485e+05
7.779300000000000104e+00 9.063641024718745612e+05
7.824300000000000033e+00 9.085211107992801117e+05
7.869200000000000195e+00 9.096593679679194465e+05
7.914200000000000124e+00 9.106633020412884653e+05
7.959200000000000053e+00 9.119063950141133973e+05
8.004099999999999326e+00 9.130115711901695468e+05
8.049099999999999255e+00 9.141581425065313233e+05
8.094099999999999184e+00 9.152901517408122309e+05
8.138999999999999346e+00 9.167247939197068335e+05
8.183999999999999275e+00 9.180110832154776435e+05
8.228999999999999204e+00 9.183744892914202064e+05
8.273899999999999366e+00 9.179460336987472838e+05
8.318899999999999295e+00 9.172069601222209167e+05
8.363899999999999224e+00 9.158127689728207188e+05
8.408799999999999386e+00 9.143053166659474373e+05
8.453799999999999315e+00 9.139330612833518535e+05
8.498799999999999244e+00 9.141668418223672779e+05
8.543699999999999406e+00 9.140910114943672670e+05
8.588699999999999335e+00 9.141792731046266854e+05
8.633699999999999264e+00 9.151361266737537226e+05
8.678599999999999426e+00 9.166216808904631762e+05
8.723599999999999355e+00 9.181610142491023289e+05
8.768599999999999284e+00 9.196431029677356128e+05
8.813499999999999446e+00 9.207429549325706903e+05
8.858499999999999375e+00 9.215247507399549941e+05
8.903499999999999304e+00 9.214015590985385934e+05
8.948399999999999466e+00 9.198789599895819556e+05
8.993399999999999395e+00 9.176025174535188125e+05
9.038399999999999324e+00 9.155709245702674380e+05
9.083299999999999486e+00 9.139513532559378073e+05
9.128299999999999415e+00 9.123972294825748540e+05
9.173299999999999343e+00 9.112463154879615176e+05
9.218199999999999505e+00 9.106073480448725168e+05
9.263199999999999434e+00 9.100319842930462910e+05
9.308199999999999363e+00 9.093196653490592726e+05
9.353099999999999525e+00 9.081720016151873861e+05
9.398099999999999454e+00 9.070392248774423497e+05
9.443099999999999383e+00 9.066932247103722766e+05
9.487999999999999545e+00 9.075258477113188710e+05
9.532999999999999474e+00 9.089805405003407504e+05
9.577999999999999403e+00 9.101370881345710950e+05
9.622899999999999565e+00 9.108049447064117994e+05
9.667899999999999494e+00 9.116002408129476244e+05
9.712899999999999423e+00 9.127785555492989952e+05
9.757799999999999585e+00 9.150436429001253564e+05
9.802799999999999514e+00 9.180677064419054659e+05
9.847799999999999443e+00 9.206629806455455255e+05
9.892699999999999605e+00 9.222947293144019786e+05
9.937699999999999534e+00 9.227947060376624577e+05
9.982699999999999463e+00 9.231746496292507509e+05
1.002759999999999962e+01 9.243384929758789949e+05
1.007259999999999955e+01 9.255185177123585017e+05
1.011759999999999948e+01 9.265951005863196915e+05
1.016249999999999964e+01 9.278041549818640342e+05
1.020749999999999957e+01 9.291570893320667092e+05
1.025249999999999950e+01 9.307100251182445791e+05
1.029739999999999966e+01 9.316804191028735368e+05
1.034239999999999959e+01 9.317597411440893775e+05
1.038739999999999952e+01 9.312874540386587614e+05
1.043229999999999968e+01 9.312347736422907328e+05
1.047729999999999961e+01 9.326412725681142183e+05
1.052229999999999954e+01 9.349782874384315219e+05
1.056729999999999947e+01 9.367275891163086053e+05
1.061219999999999963e+01 9.366694455523927463e+05
1.065719999999999956e+01 9.354346603784754407e+05
1.070219999999999949e+01 9.340874061197299743e+05
1.074709999999999965e+01 9.334861948155944701e+05
1.079209999999999958e+01 9.335244434324137401e+05
1.083709999999999951e+01 9.334525783465625718e+05
1.088199999999999967e+01 9.332138670025207102e+05
1.092699999999999960e+01 9.332154535267559113e+05
1.097199999999999953e+01 9.332023228763194056e+05
1.101689999999999969e+01 9.331819503778571961e+05
1.106189999999999962e+01 9.330872850328884088e+05
1.110689999999999955e+01 9.328784201820032904e+05
1.115179999999999971e+01 9.328062015933769289e+05
1.119679999999999964e+01 9.325055025815785630e+05
1.124179999999999957e+01 9.312751701500805793e+05
1.128669999999999973e+01 9.292849896416760748e+05
1.133169999999999966e+01 9.276477413231005194e+05
1.137669999999999959e+01 9.263309591815668391e+05
1.142159999999999975e+01 9.248776571226754459e+05
1.146659999999999968e+01 9.230415705328463810e+05
1.151159999999999961e+01 9.210618483582047047e+05
1.155649999999999977e+01 9.192737649252513656e+05
1.160149999999999970e+01 9.174729280950834509e+05
1.164649999999999963e+01 9.154656310392874293e+05
1.169139999999999979e+01 9.134267568029941758e+05
1.173639999999999972e+01 9.115930406488615554e+05
1.178139999999999965e+01 9.100307478127296781e+05
1.182629999999999981e+01 9.078812317258721450e+05
1.187129999999999974e+01 9.044486791706911754e+05
1.191629999999999967e+01 8.999188429756610421e+05
1.196119999999999983e+01 8.950915866746652173e+05
1.200619999999999976e+01 8.903290505076249829e+05
1.205119999999999969e+01 8.856452065699480008e+05
1.209609999999999985e+01 8.818750841771038249e+05
1.214109999999999978e+01 8.787070911614464130e+05
1.218609999999999971e+01 8.757958745440687053e+05
1.223099999999999987e+01 8.732888558025053935e+05
1.227599999999999980e+01 8.706009168261260493e+05
1.232099999999999973e+01 8.673376255188342184e+05
1.236589999999999989e+01 8.638829339375878917e+05
1.241089999999999982e+01 8.608485084842006909e+05
1.245589999999999975e+01 8.575341477499889443e+05
1.250079999999999991e+01 8.531390186387049034e+05
1.254579999999999984e+01 8.474570637131313561e+05
1.259079999999999977e+01 8.417159649654688546e+05
1.263569999999999993e+01 8.370942964978615055e+05
1.268069999999999986e+01 8.336550589172817999e+05
1.272569999999999979e+01 8.307203484882928897e+05
1.277059999999999995e+01 8.277173823626119411e+05
1.281559999999999988e+01 8.242096715934899403e+05
1.286059999999999981e+01 8.201852269115725067e+05
1.290549999999999997e+01 8.160537208032662747e+05
1.295049999999999990e+01 8.125017415836204309e+05
1.299549999999999983e+01 8.089481426614209777e+05
1.304039999999999999e+01 8.050789060439203167e+05
1.308539999999999992e+01 8.004097110646007350e+05
1.313039999999999985e+01 7.953449919071028708e+05
1.317530000000000001e+01 7.904016285489029251e+05
1.322029999999999994e+01 7.855728979738799389e+05
1.326529999999999987e+01 7.805625217527402565e+05
1.331020000000000003e+01 7.754315702656809008e+05
1.335519999999999996e+01 7.703726868131952360e+05
1.340019999999999989e+01 7.649792857965662843e+05
1.344510000000000005e+01 7.590199438122139545e+05
1.349009999999999998e+01 7.530155919995310251e+05
1.353509999999999991e+01 7.477885585230181459e+05
1.358000000000000007e+01 7.434389927875783760e+05
1.362500000000000000e+01 7.396454237857116386e+05
1.366999999999999993e+01 7.362822525133091258e+05
1.371490000000000009e+01 7.327690541513556382e+05
1.375990000000000002e+01 7.293113056247690693e+05
1.380489999999999995e+01 7.270681792718149954e+05
1.384980000000000011e+01 7.261232882357749622e+05
1.389480000000000004e+01 7.258850767510657897e+05
1.393979999999999997e+01 7.258182812635709997e+05
1.398470000000000013e+01 7.250661806163792498e+05
1.402970000000000006e+01 7.234996857232811162e+05
1.407469999999999999e+01 7.219122215062502073e+05
1.411960000000000015e+01 7.211870029242412420e+05
1.416460000000000008e+01 7.214942839663606137e+05
1.420960000000000001e+01 7.223940596415804466e+05
1.425450000000000017e+01 7.227986178145102458e+05
1.429950000000000010e+01 7.223356518156070961e+05
1.434450000000000003e+01 7.210057848867487628e+05
1.438940000000000019e+01 7.189759889512809459e+05
1.443440000000000012e+01 7.161070454810634255e+05
1.447940000000000005e+01 7.127758706741785863e+05
1.452430000000000021e+01 7.097654791832622141e+05
1.456930000000000014e+01 7.071812092674139421e+05
1.461430000000000007e+01 7.051547152465241961e+05
1.465930000000000000e+01 7.038446063582965871e+05
1.470420000000000016e+01 7.036550903526078910e+05
1.474920000000000009e+01 7.046406798160881735e+05
1.479420000000000002e+01 7.064138942512021167e+05
1.483910000000000018e+01 7.082388898849202087e+05
1.488410000000000011e+01 7.095774192820554599e+05
1.492910000000000004e+01 7.109678640796781983e+05
1.497400000000000020e+01 7.130287564840801060e+05
1.501900000000000013e+01 7.157906658703973517e+05
1.506400000000000006e+01 7.196895016831856919e+05
1.510890000000000022e+01 7.245744404733155388e+05
1.515390000000000015e+01 7.303453085868544877e+05
1.519890000000000008e+01 7.364769025895807426e+05
1.524380000000000024e+01 7.415685691034232732e+05
1.528880000000000017e+01 7.453017722447272390e+05
1.533380000000000010e+01 7.483490477223735070e+05
1.537870000000000026e+01 7.520409448161624605e+05
1.542370000000000019e+01 7.570816098728165962e+05
1.546870000000000012e+01 7.630491730941561982e+05
1.551360000000000028e+01 7.694218266558736796e+05
1.555860000000000021e+01 7.760657658649266232e+05
1.560360000000000014e+01 7.824817185015347786e+05
1.564850000000000030e+01 7.879852514451963361e+05
1.569350000000000023e+01 7.927191862568592187e+05
1.573850000000000016e+01 7.975837909544941504e+05
1.578340000000000032e+01 8.028706486783170840e+05
1.582840000000000025e+01 8.075594634033808252e+05
1.587340000000000018e+01 8.117672155604528962e+05
1.591830000000000034e+01 8.156932341790799983e+05
1.596330000000000027e+01 8.189212422562710708e+05
1.600829999999999842e+01 8.210395111924951198e+05
1.605320000000000036e+01 8.221537220023343107e+05
1.609819999999999851e+01 8.226139817819962045e+05
1.614320000000000022e+01 8.222530380147669930e+05
1.618809999999999860e+01 8.214988971944627119e+05
1.623310000000000031e+01 8.214934631702671759e+05
1.627809999999999846e+01 8.226180678121958626e+05
1.632300000000000040e+01 8.245076432188242907e+05
1.636799999999999855e+01 8.278659441534926882e+05
1.641300000000000026e+01 8.335222349302329822e+05
1.645789999999999864e+01 8.416058145888937870e+05
1.650290000000000035e+01 8.515845054084851872e+05
1.654789999999999850e+01 8.631425751833053073e+05
1.659280000000000044e+01 8.754592874881172320e+05
1.663779999999999859e+01 8.876243712531982455e+05
1.668280000000000030e+01 8.992061551594715565e+05
1.672769999999999868e+01 9.107537907810298493e+05
1.677270000000000039e+01 9.224605796049418859e+05
1.681769999999999854e+01 9.346074062471669167e+05
1.686260000000000048e+01 9.482626023262329400e+05
1.690759999999999863e+01 9.637790989378120285e+05
1.695260000000000034e+01 9.801624275431995047e+05
1.699749999999999872e+01 9.958137161338111619e+05
1.704250000000000043e+01 1.008761136606645421e+06
1.708749999999999858e+01 1.019161687035876093e+06
1.713240000000000052e+01 1.028737860594601254e+06
1.717739999999999867e+01 1.039061348977689515e+06
1.722240000000000038e+01 1.051267214034612756e+06
1.726729999999999876e+01 1.066731863607420586e+06
1.731230000000000047e+01 1.085520142274311511e+06
1.735729999999999862e+01 1.106138840242046397e+06
1.740220000000000056e+01 1.125493299081448698e+06
1.744719999999999871e+01 1.141686788124423008e+06
1.749220000000000041e+01 1.155508409534521168e+06
1.753709999999999880e+01 1.168453091555102263e+06
1.758210000000000051e+01 1.181841944603309501e+06
1.762709999999999866e+01 1.197444706864530221e+06
1.767200000000000060e+01 1.214518868048081174e+06
1.771699999999999875e+01 1.230720918600430014e+06
1.776200000000000045e+01 1.244039671988848131e+06
1.780689999999999884e+01 1.254132795845137443e+06
1.785190000000000055e+01 1.262137539772598073e+06
1.789689999999999870e+01 1.268830282846461283e+06
