# energy(eV) alpha
0.000000000000000000e+00 0.000000000000000000e+00
1.130000000000000032e-01 2.302296093154237777e+00
2.260000000000000064e-01 9.865030708750216704e+00
3.391000000000000125e-01 2.170195639766020435e+01
4.521000000000000019e-01 3.812180864682693482e+01
5.651000000000000467e-01 6.075802698408935498e+01
6.781000000000000361e-01 8.860427419283512052e+01
7.911000000000000254e-01 1.193414652088379881e+02
9.041000000000000147e-01 1.572060853758831342e+02
1.017200000000000104e+00 2.031604849912841644e+02
1.130200000000000093e+00 2.515646571594353986e+02
1.243200000000000083e+00 3.085985814192909515e+02
1.356200000000000072e+00 3.712653315008401478e+02
1.469200000000000061e+00 4.437263586952004744e+02
1.582200000000000051e+00 5.223220954987930327e+02
1.695300000000000029e+00 6.070116448994840539e+02
1.808300000000000018e+00 7.028008000407448890e+02
1.921300000000000008e+00 8.105457852908508585e+02
2.034299999999999997e+00 9.252735371599821974e+02
2.147299999999999986e+00 1.052914208611990944e+03
2.260299999999999976e+00 1.194227476918447792e+03
2.373400000000000176e+00 1.349982703833818732e+03
2.486400000000000166e+00 1.520722522094366695e+03
2.599400000000000155e+00 1.714391825907214752e+03
2.712400000000000144e+00 1.924850158598859252e+03
2.825400000000000134e+00 2.160408330235199173e+03
2.938400000000000123e+00 2.422343897978838868e+03
3.051499999999999879e+00 2.720228227752513249e+03
3.164499999999999869e+00 3.055621894447989234e+03
3.277499999999999858e+00 3.430146758971295640e+03
3.390499999999999847e+00 3.863453569413449259e+03
3.503499999999999837e+00 4.367286568705296304e+03
3.616600000000000037e+00 4.954018623663390827e+03
3.729600000000000026e+00 5.655531374715312268e+03
3.842600000000000016e+00 6.515394557803523639e+03
3.955600000000000005e+00 7.619254026460263958e+03
4.068599999999999994e+00 9.128293439837314509e+03
4.181600000000000428e+00 1.152218516702567103e+04
4.294699999999999740e+00 1.650036604300095496e+04
4.407700000000000173e+00 2.584106189139934941e+04
4.520699999999999719e+00 2.604076067708865594e+04
4.633700000000000152e+00 3.796143944956843188e+04
4.746699999999999697e+00 6.901030699684312276e+04
4.859700000000000131e+00 7.498893832281070354e+04
4.972800000000000331e+00 1.012092154905586649e+05
5.085799999999999876e+00 9.512860338504442188e+04
5.198800000000000310e+00 1.105966326064992027e+05
5.311799999999999855e+00 1.013458389720580890e+05
5.424800000000000288e+00 1.332009908853407833e+05
5.537799999999999834e+00 1.663418027968007955e+05
5.650900000000000034e+00 2.795100951976493234e+05
5.763899999999999579e+00 3.871619228053955594e+05
5.876900000000000013e+00 4.934958225660855533e+05
5.989899999999999558e+00 5.810580480066937162e+05
6.102899999999999991e+00 6.310041496764958138e+05
6.215900000000000425e+00 5.863251824132446200e+05
6.328999999999999737e+00 8.211345041409704136e+05
6.442000000000000171e+00 7.990240997663516318e+05
6.554999999999999716e+00 7.367286111345777754e+05
6.668000000000000149e+00 6.585750441956216237e+05
6.780999999999999694e+00 6.274486252750584390e+05
6.894000000000000128e+00 6.481099438874021871e+05
7.007100000000000328e+00 5.999208815507716499e+05
7.120099999999999874e+00 6.774964259698347887e+05
7.233100000000000307e+00 7.299241632579130819e+05
7.346099999999999852e+00 7.364100897172909463e+05
7.459100000000000286e+00 7.307757321418166393e+05
7.572199999999999598e+00 6.980382501256987453e+05
7.685200000000000031e+00 6.888061552307441598e+05
7.798199999999999577e+00 7.206275703656647820e+05
7.911200000000000010e+00 7.596541013989660423e+05
8.024200000000000443e+00 1.014171445614650962e+06
8.137199999999999989e+00 1.025851356352263479e+06
8.250299999999999301e+00 8.786996713814932154e+05
8.363300000000000622e+00 8.544064756336868741e+05
8.476300000000000168e+00 9.167689796806545928e+05
8.589299999999999713e+00 1.047164984603394289e+06
8.702299999999999258e+00 1.034170426552230376e+06
8.815300000000000580e+00 9.434693773510114988e+05
8.928399999999999892e+00 8.047615922170289559e+05
9.041399999999999437e+00 6.805410447750008898e+05
9.154400000000000759e+00 5.777591769715591799e+05
9.267400000000000304e+00 5.767045903252688004e+05
9.380399999999999849e+00 6.278025820710938424e+05
9.493399999999999395e+00 6.238431878620198695e+05
9.606500000000000483e+00 7.294182438046442112e+05
9.719500000000000028e+00 7.647739651976347668e+05
9.832499999999999574e+00 8.528183440694716992e+05
9.945499999999999119e+00 7.892088841016697697e+05
1.005850000000000044e+01 7.744603362666016910e+05
1.017149999999999999e+01 7.815518834433094598e+05
1.028459999999999930e+01 8.516860077239978127e+05
1.039760000000000062e+01 7.582980831220475957e+05
1.051060000000000016e+01 7.194341755797888618e+05
1.062359999999999971e+01 7.374255405901917256e+05
1.073659999999999926e+01 7.700513461402173853e+05
1.084970000000000034e+01 6.845992118974421173e+05
1.096269999999999989e+01 6.371215346663543023e+05
1.107569999999999943e+01 6.704814570084473817e+05
1.118870000000000076e+01 6.719449680742074270e+05
1.130170000000000030e+01 7.221763115456658415e+05
1.141469999999999985e+01 6.836857813414951088e+05
1.152779999999999916e+01 7.235010790263296803e+05
1.164080000000000048e+01 7.124813070236947387e+05
1.175380000000000003e+01 6.460560415286112111e+05
1.186679999999999957e+01 6.065654200460547581e+05
1.197979999999999912e+01 6.887957198594604852e+05
1.209280000000000044e+01 6.501281751604398014e+05
1.220589999999999975e+01 6.812713192048383644e+05
1.231889999999999930e+01 7.024386461058879504e+05
1.243190000000000062e+01 7.234080450393173378e+05
1.254490000000000016e+01 7.936979576624144102e+05
1.265789999999999971e+01 8.173724661591738695e+05
1.277089999999999925e+01 1.053407961860826239e+06
1.288400000000000034e+01 1.158382171653457917e+06
1.299699999999999989e+01 1.216657108393013012e+06
1.310999999999999943e+01 1.196467772140003508e+06
1.322300000000000075e+01 1.143056803797643166e+06
1.333600000000000030e+01 1.172039933122471441e+06
1.344899999999999984e+01 1.161123318188650068e+06
1.356209999999999916e+01 1.125238925334541127e+06
1.367510000000000048e+01 1.104103188272377942e+06
1.378810000000000002e+01 1.216595842843785416e+06
1.390109999999999957e+01 1.398211792728267144e+06
1.401409999999999911e+01 1.392947229562408291e+06
1.412720000000000020e+01 1.458148324728037696e+06
1.424019999999999975e+01 1.445570579494650941e+06
1.435319999999999929e+01 1.591004463882552925e+06
1.446620000000000061e+01 1.942944313266101759e+06
1.457920000000000016e+01 2.150239681283661164e+06
1.469219999999999970e+01 2.028473394226150820e+06
1.480530000000000079e+01 1.794694758576063905e+06
1.491830000000000034e+01 1.654073871729221661e+06
1.503129999999999988e+01 1.453573194597979775e+06
1.514429999999999943e+01 1.339503171542149503e+06
1.525730000000000075e+01 1.271196524017790100e+06
1.537030000000000030e+01 1.207949492907542270e+06
1.548339999999999961e+01 1.158402769008868840e+06
1.559639999999999915e+01 1.016643486624335172e+06
1.570940000000000047e+01 9.652513071547610452e+05
1.582240000000000002e+01 9.820994995264029130e+05
1.593539999999999957e+01 9.253887057614033110e+05
1.604840000000000089e+01 1.023585833113153465e+06
1.616150000000000020e+01 1.073335890367090469e+06
1.627449999999999974e+01 1.092523470703324769e+06
1.638749999999999929e+01 1.018814502657621750e+06
1.650049999999999883e+01 9.653115248811045894e+05
1.661349999999999838e+01 1.018091265272636665e+06
1.672650000000000148e+01 1.098449303141771117e+06
1.683960000000000079e+01 1.095332259717100766e+06
1.695260000000000034e+01 1.056441640243328176e+06
1.706559999999999988e+01 1.035936448233882780e+06
1.717859999999999943e+01 9.403961538551672129e+05
1.729159999999999897e+01 8.645234357125530951e+05
1.740469999999999828e+01 8.422041259604801890e+05
1.751770000000000138e+01 9.077804059012825601e+05
1.763070000000000093e+01 8.483323722521919990e+05
1.774370000000000047e+01 7.997597994199999375e+05
1.785670000000000002e+01 8.005338891013037646e+05
1.796969999999999956e+01 7.635115032459832728e+05
1.808279999999999887e+01 7.632057823336236179e+05
1.819579999999999842e+01 7.051878796199279604e+05
1.830880000000000152e+01 6.266241915312100900e+05
1.842180000000000106e+01 6.409081779468555469e+05
1.853480000000000061e+01 6.125775340613251319e+05
1.864780000000000015e+01 5.834107368390015326e+05
1.876089999999999947e+01 5.668033479116662638e+05
1.887389999999999901e+01 5.094302572672119131e+05
1.898689999999999856e+01 4.641381897290348425e+05
1.909990000000000165e+01 4.541070987478276365e+05
1.921290000000000120e+01 4.585575604206826538e+05
1.932590000000000074e+01 4.495452633337379666e+05
1.943900000000000006e+01 4.445510872861495009e+05
1.955199999999999960e+01 4.604853217028170475e+05
1.966499999999999915e+01 4.665081925980524975e+05
1.977799999999999869e+01 4.753591553283849498e+05
1.989099999999999824e+01 4.968033875154235284e+05
2.000400000000000134e+01 5.481935961855432251e+05
2.011710000000000065e+01 5.800056883159591816e+05
2.023010000000000019e+01 6.644456767868013121e+05
2.034309999999999974e+01 6.813651386294305557e+05
2.045609999999999928e+01 6.413412139033653075e+05
2.056909999999999883e+01 7.610231410820623860e+05
2.068209999999999837e+01 8.033941936932276003e+05
2.079520000000000124e+01 9.585707335447877413e+05
2.090820000000000078e+01 9.812662869576434605e+05
2.102120000000000033e+01 8.224019257333645364e+05
2.113419999999999987e+01 8.083103683796070982e+05
2.124719999999999942e+01 1.074822274650241714e+06
2.136029999999999873e+01 1.171613230959066655e+06
2.147329999999999828e+01 1.084319712336999364e+06
2.158630000000000138e+01 1.041720876751380507e+06
2.169930000000000092e+01 1.047576011533406214e+06
2.181230000000000047e+01 9.923335071543770609e+05
2.192530000000000001e+01 8.592680807442247169e+05
2.203839999999999932e+01 9.990657178004347952e+05
2.215139999999999887e+01 1.104576433719591703e+06
2.226439999999999841e+01 1.050460260026903125e+06
2.237740000000000151e+01 1.089115842701961054e+06
2.249040000000000106e+01 1.166249872611568775e+06
2.260340000000000060e+01 1.405172169150867034e+06
2.271649999999999991e+01 1.442432766837409697e+06
2.282949999999999946e+01 1.403588640557846753e+06
2.294249999999999901e+01 1.333677627857386135e+06
2.305549999999999855e+01 1.156628345890928991e+06
2.316850000000000165e+01 9.699278046727123437e+05
2.328150000000000119e+01 8.395914547376248520e+05
2.339460000000000051e+01 6.637126388805217575e+05
2.350760000000000005e+01 6.030583057370155584e+05
2.362059999999999960e+01 6.267245075345145306e+05
2.373359999999999914e+01 6.736587783687025076e+05
2.384659999999999869e+01 7.927690387533061439e+05
2.395959999999999823e+01 8.276758016176396050e+05
2.407270000000000110e+01 7.060715571302741300e+05
2.418570000000000064e+01 6.172113978732839460e+05
2.429870000000000019e+01 6.196269578761974117e+05
2.441169999999999973e+01 6.836385793623495847e+05
2.452469999999999928e+01 6.954351709110621596e+05
2.463779999999999859e+01 6.189049872367162025e+05
2.475080000000000169e+01 5.269784615342949983e+05
2.486380000000000123e+01 4.739622139095875318e+05
2.497680000000000078e+01 4.444356655452510458e+05
2.508980000000000032e+01 5.077224303151267231e+05
2.520279999999999987e+01 5.518689010150872637e+05
2.531589999999999918e+01 4.851811304780809442e+05
2.542889999999999873e+01 4.253161227667125640e+05
2.554189999999999827e+01 4.867968536586515256e+05
2.565490000000000137e+01 4.682713233577974606e+05
2.576790000000000092e+01 5.112070768872638000e+05
2.588090000000000046e+01 4.341655966741058510e+05
2.599399999999999977e+01 4.603443644806496450e+05
2.610699999999999932e+01 4.107247301577850594e+05
2.621999999999999886e+01 3.910645472490509856e+05
2.633299999999999841e+01 3.700929881748618791e+05
2.644600000000000151e+01 3.380989746966548264e+05
2.655900000000000105e+01 3.349139446204618434e+05
2.667210000000000036e+01 2.856585147916513961e+05
2.678509999999999991e+01 2.746056838805819280e+05
2.689809999999999945e+01 2.421217330061450775e+05
2.701109999999999900e+01 2.272713413278805092e+05
2.712409999999999854e+01 2.276017762070439931e+05
2.723710000000000164e+01 2.612706726836583402e+05
2.735020000000000095e+01 2.374266152477595024e+05
2.746320000000000050e+01 2.180289198073646403e+05
2.757620000000000005e+01 2.623635085023085703e+05
2.768919999999999959e+01 3.056247258154885494e+05
2.780219999999999914e+01 3.115625987565401592e+05
2.791529999999999845e+01 2.864521799021548941e+05
2.802830000000000155e+01 2.622642226875832421e+05
2.814130000000000109e+01 2.701059495317237452e+05
2.825430000000000064e+01 2.581051299171289429e+05
2.836730000000000018e+01 2.277244039453847799e+05
2.848029999999999973e+01 2.259634240905448678e+05
2.859339999999999904e+01 2.257127480535086943e+05
2.870639999999999858e+01 2.496183565934099606e+05
2.881940000000000168e+01 2.523909629622662615e+05
2.893240000000000123e+01 2.377552572791671846e+05
2.904540000000000077e+01 2.175619188206552935e+05
2.915840000000000032e+01 1.771588971186267445e+05
2.927149999999999963e+01 1.466047779749809415e+05
2.938449999999999918e+01 1.361276810604314378e+05
2.949749999999999872e+01 1.399148454138847592e+05
2.961049999999999827e+01 1.236850215830943489e+05
2.972350000000000136e+01 1.286057851607574557e+05
2.983650000000000091e+01 1.286690132922428747e+05
2.994960000000000022e+01 1.266260374476079160e+05
3.006259999999999977e+01 1.400666114319750923e+05
3.017559999999999931e+01 1.908847136744339950e+05
3.028859999999999886e+01 2.013109202426585543e+05
3.040159999999999840e+01 1.816947131367099355e+05
3.051460000000000150e+01 1.614195045961511787e+05
3.062770000000000081e+01 1.504273757603894919e+05
3.074070000000000036e+01 1.586729366191713198e+05
3.085369999999999990e+01 1.577283376967681397e+05
3.096669999999999945e+01 1.623134891473875905e+05
3.107969999999999899e+01 1.592507046149693197e+05
3.119279999999999831e+01 1.521426042076011654e+05
3.130580000000000140e+01 1.283203456488513912e+05
3.141880000000000095e+01 1.202175098938128067e+05
3.153180000000000049e+01 1.178409437687203026e+05
3.164480000000000004e+01 1.204063535661537753e+05
3.175779999999999959e+01 1.195641528505497408e+05
3.187089999999999890e+01 1.212168858675159281e+05
3.198389999999999844e+01 1.138328018653064064e+05
3.209689999999999799e+01 1.056474578000639740e+05
3.220989999999999753e+01 1.086466620117028797e+05
3.232289999999999708e+01 1.170551813380426611e+05
3.243589999999999662e+01 1.134387440354689606e+05
3.254899999999999949e+01 1.041714312491693709e+05
3.266199999999999903e+01 9.451238414558286604e+04
3.277499999999999858e+01 9.974621031967466115e+04
3.288799999999999812e+01 9.277174219371097570e+04
3.300099999999999767e+01 8.949867439151632425e+04
3.311399999999999721e+01 9.508701231869669573e+04
3.322710000000000008e+01 1.023705205301090900e+05
3.334009999999999962e+01 8.872313063885658630e+04
3.345309999999999917e+01 7.817272818535308761e+04
3.356609999999999872e+01 7.810131726537758368e+04
3.367909999999999826e+01 7.798258185236490681e+04
3.379209999999999781e+01 7.355368780610234535e+04
3.390520000000000067e+01 7.611651168171806785e+04
3.401820000000000022e+01 8.116162401253863936e+04
3.413119999999999976e+01 9.037440984893559653e+04
3.424419999999999931e+01 9.521249931597987597e+04
3.435719999999999885e+01 9.157522510615330248e+04
3.447019999999999840e+01 1.008028958824840229e+05
3.458330000000000126e+01 9.928711552233905240e+04
3.469630000000000081e+01 7.862453981162767741e+04
3.480930000000000035e+01 7.029903748300859297e+04
3.492229999999999990e+01 6.800665105970423610e+04
3.503529999999999944e+01 6.652070070843741996e+04
3.514840000000000231e+01 7.182446654424851295e+04
3.526140000000000185e+01 7.844181881734626950e+04
3.537440000000000140e+01 8.933230638169193116e+04
3.548740000000000094e+01 9.466888904970494332e+04
3.560040000000000049e+01 9.701421752373798518e+04
3.571340000000000003e+01 8.990960656249002204e+04
3.582650000000000290e+01 8.529992213896478643e+04
3.593950000000000244e+01 8.237066377396469761e+04
3.605250000000000199e+01 7.702379861545533640e+04
3.616550000000000153e+01 8.014744930759209092e+04
3.627850000000000108e+01 7.213933931214247423e+04
3.639150000000000063e+01 6.836405577479860222e+04
3.650460000000000349e+01 7.010407663074100856e+04
3.661760000000000304e+01 7.247077859374781838e+04
3.673060000000000258e+01 8.502864761960266333e+04
3.684360000000000213e+01 8.018442242750051082e+04
3.695660000000000167e+01 7.256707058983978641e+04
3.706960000000000122e+01 5.852341250074772688e+04
3.718269999999999698e+01 5.373539200202447682e+04
3.729569999999999652e+01 5.929297971615537244e+04
3.740870000000000317e+01 6.478015323246209300e+04
3.752170000000000272e+01 6.712650742481926864e+04
3.763470000000000226e+01 6.607667892275110353e+04
3.774770000000000181e+01 5.645938882948469109e+04
3.786079999999999757e+01 5.730238218336943100e+04
3.797379999999999711e+01 6.609946183977078181e+04
3.808679999999999666e+01 6.570680947149527492e+04
3.819980000000000331e+01 6.219330618209930253e+04
3.831280000000000285e+01 5.730475490208403789e+04
3.842589999999999861e+01 5.323275134077292023e+04
3.853889999999999816e+01 5.085733191867506685e+04
3.865189999999999770e+01 5.512025505415289081e+04
3.876489999999999725e+01 5.170956754266291682e+04
3.887789999999999679e+01 5.488719567278619797e+04
3.899090000000000344e+01 5.259575300156127923e+04
3.910399999999999920e+01 5.043479217856818286e+04
3.921699999999999875e+01 5.606949074471546919e+04
3.932999999999999829e+01 5.556789440257751994e+04
3.944299999999999784e+01 5.523035514742317901e+04
3.955599999999999739e+01 5.828404295285606349e+04
3.966899999999999693e+01 5.581925130981009715e+04
3.978209999999999980e+01 4.649175817649336386e+04
3.989509999999999934e+01 4.494435159623371146e+04
4.000809999999999889e+01 4.588235256547157041e+04
4.012109999999999843e+01 5.161469097576030617e+04
4.023409999999999798e+01 5.037322562698560796e+04
4.034709999999999752e+01 5.664337253409431287e+04
4.046020000000000039e+01 5.093657681855522242e+04
4.057319999999999993e+01 4.738437322443685116e+04
4.068619999999999948e+01 4.587246280536716949e+04
4.079919999999999902e+01 4.597734408861839620e+04
4.091219999999999857e+01 4.196104804532562412e+04
4.102519999999999811e+01 3.787388155505467148e+04
4.113830000000000098e+01 4.138509761112993147e+04
4.125130000000000052e+01 3.848558490653254557e+04
4.136430000000000007e+01 3.785185988677165005e+04
4.147729999999999961e+01 3.652474994825899194e+04
4.159029999999999916e+01 3.749472608850508550e+04
4.170340000000000202e+01 4.173841924223385286e+04
4.181640000000000157e+01 4.417630220461757563e+04
4.192940000000000111e+01 4.479154931482515531e+04
4.204240000000000066e+01 3.812016442438618833e+04
4.215540000000000020e+01 3.628786188668353861e+04
4.226839999999999975e+01 3.822161501707528805e+04
4.238150000000000261e+01 4.043728824172460736e+04
4.249450000000000216e+01 3.772794806619857991e+04
4.260750000000000171e+01 3.164748459748688401e+04
4.272050000000000125e+01 3.144014051494453815e+04
4.283350000000000080e+01 3.290610527665550035e+04
4.294650000000000034e+01 3.486470562644118763e+04
4.305960000000000321e+01 3.588421618601284717e+04
4.317260000000000275e+01 3.739678374412010453e+04
4.328560000000000230e+01 3.626844215223099309e+04
4.339860000000000184e+01 4.161337889818142139e+04
4.351160000000000139e+01 3.982723142508778255e+04
4.362460000000000093e+01 3.629485606048400950e+04
4.373769999999999669e+01 3.804874058648025675e+04
4.385070000000000334e+01 3.741175529324397939e+04
4.396370000000000289e+01 3.773455443319999904e+04
4.407670000000000243e+01 3.710188727436857880e+04
4.418970000000000198e+01 3.401466019154481182e+04
4.430270000000000152e+01 3.529455356368688808e+04
4.441579999999999728e+01 3.464853977924028732e+04
4.452879999999999683e+01 3.153823813725508444e+04
4.464180000000000348e+01 3.084320853761930630e+04
4.475480000000000302e+01 3.408743561279049754e+04
4.486780000000000257e+01 3.540474848888214910e+04
4.498080000000000211e+01 3.352215980587142258e+04
