# energy(eV) alpha
0.000000000000000000e+00 0.000000000000000000e+00
2.910000000000000087e-02 1.228681072462594726e+00
5.809999999999999887e-02 4.821330345774113901e+00
8.719999999999999973e-02 1.091627227916531773e+01
1.161999999999999977e-01 1.944846912664420557e+01
1.453000000000000125e-01 3.044449526462844702e+01
1.743999999999999995e-01 4.388839454960869801e+01
2.033999999999999975e-01 5.989466280696137090e+01
2.325000000000000122e-01 7.857584513425869943e+01
2.615999999999999992e-01 9.977396022498663797e+01
2.906000000000000250e-01 1.234404276779462464e+02
3.196999999999999842e-01 1.498797693505092070e+02
3.487000000000000099e-01 1.793098658001655394e+02
3.778000000000000247e-01 2.116712627289160196e+02
4.068999999999999839e-01 2.466738578230583983e+02
4.359000000000000097e-01 2.845570939555032055e+02
4.650000000000000244e-01 3.258322428405380720e+02
4.939999999999999947e-01 3.704733997174297997e+02
5.231000000000000094e-01 4.179792270465896991e+02
5.522000000000000242e-01 4.690610435214073846e+02
5.812000000000000499e-01 5.237288164216289488e+02
6.102999999999999536e-01 5.822654571485214774e+02
6.393999999999999684e-01 6.446845460206900498e+02
6.683999999999999941e-01 7.109770222081261863e+02
6.975000000000000089e-01 7.814491716959694259e+02
7.265000000000000346e-01 8.564901290767351156e+02
7.556000000000000494e-01 9.370239587544119786e+02
7.846999999999999531e-01 1.021464759977423114e+03
8.136999999999999789e-01 1.112015002190424866e+03
8.427999999999999936e-01 1.206803036362042121e+03
8.719000000000000083e-01 1.308814056102223958e+03
9.009000000000000341e-01 1.416268895139797905e+03
9.300000000000000488e-01 1.530921720793459372e+03
9.589999999999999636e-01 1.652002914375564615e+03
9.880999999999999783e-01 1.782107060535286337e+03
1.017200000000000104e+00 1.918537737268876299e+03
1.046200000000000019e+00 2.064864759493572819e+03
1.075299999999999923e+00 2.220327764389170170e+03
1.104300000000000059e+00 2.385546965277542768e+03
1.133399999999999963e+00 2.562012802199270936e+03
1.162500000000000089e+00 2.750636968414591138e+03
1.191500000000000004e+00 2.953200415748329306e+03
1.220599999999999907e+00 3.168930386690398791e+03
1.249700000000000033e+00 3.400504667547612371e+03
1.278699999999999948e+00 3.648948437614112663e+03
1.307800000000000074e+00 3.917081056776994956e+03
1.336799999999999988e+00 4.204861877390250811e+03
1.365899999999999892e+00 4.517076290140838864e+03
1.395000000000000018e+00 4.856903246068355656e+03
1.423999999999999932e+00 5.223733323211121387e+03
1.453100000000000058e+00 5.625692841594843230e+03
1.482099999999999973e+00 6.065866105763223459e+03
1.511200000000000099e+00 6.549890658842458834e+03
1.540300000000000002e+00 7.084389777660332584e+03
1.569299999999999917e+00 7.679204097816397734e+03
1.598400000000000043e+00 8.343770285117738240e+03
1.627499999999999947e+00 9.091521185044877711e+03
1.656500000000000083e+00 9.942510992816234648e+03
1.685599999999999987e+00 1.092000475536004342e+04
1.714599999999999902e+00 1.205516898661664527e+04
1.743700000000000028e+00 1.339438493883206502e+04
1.772799999999999931e+00 1.499534795138956724e+04
1.801800000000000068e+00 1.693906525478157710e+04
1.830899999999999972e+00 1.931519871753452026e+04
1.860000000000000098e+00 2.219145226467333487e+04
1.889000000000000012e+00 2.559677754518993243e+04
1.918099999999999916e+00 2.965786109131397461e+04
1.947100000000000053e+00 3.468270613734380458e+04
1.976199999999999957e+00 4.094519189539130457e+04
2.005300000000000082e+00 4.842153758680128522e+04
2.034299999999999997e+00 5.690684306559718971e+04
2.063400000000000123e+00 6.640739566360444587e+04
2.092400000000000038e+00 7.714984791660412156e+04
2.121500000000000163e+00 8.858332839118054835e+04
2.150599999999999845e+00 9.870598021577362670e+04
2.179600000000000204e+00 1.063020967957828252e+05
2.208699999999999886e+00 1.129182785710756725e+05
2.237800000000000011e+00 1.206118467203520413e+05
2.266799999999999926e+00 1.297339553003873880e+05
2.295900000000000052e+00 1.393074824053576449e+05
2.324899999999999967e+00 1.487837783331228129e+05
2.354000000000000092e+00 1.589054895585211052e+05
2.383100000000000218e+00 1.708707300371416786e+05
2.412100000000000133e+00 1.849973463920300710e+05
2.441199999999999815e+00 2.006279533836938208e+05
2.470200000000000173e+00 2.171217300129169598e+05
2.499299999999999855e+00 2.338289795446630742e+05
2.528399999999999981e+00 2.492614371520320128e+05
2.557399999999999896e+00 2.615309092678516172e+05
2.586500000000000021e+00 2.695281496704646852e+05
2.615600000000000147e+00 2.737113115874562063e+05
2.644600000000000062e+00 2.760568069370691082e+05
2.673700000000000188e+00 2.788183043659058749e+05
2.702700000000000102e+00 2.834428006539759226e+05
2.731799999999999784e+00 2.912322074972564587e+05
2.760899999999999910e+00 3.030402612565503223e+05
2.789899999999999824e+00 3.178978319998564548e+05
2.818999999999999950e+00 3.334927326713098446e+05
2.848100000000000076e+00 3.465641835318331141e+05
2.877099999999999991e+00 3.536304842499485239e+05
2.906200000000000117e+00 3.540590788542391383e+05
2.935200000000000031e+00 3.508529740321010468e+05
2.964300000000000157e+00 3.481665640964703052e+05
2.993399999999999839e+00 3.484490547192600789e+05
3.022400000000000198e+00 3.517837703087031841e+05
3.051499999999999879e+00 3.570947531664384296e+05
3.080499999999999794e+00 3.636337121361941681e+05
3.109599999999999920e+00 3.714676774865100742e+05
3.138700000000000045e+00 3.804396640695418464e+05
3.167699999999999960e+00 3.899047460389870685e+05
3.196800000000000086e+00 3.996642771887780982e+05
3.225900000000000212e+00 4.101698835019026301e+05
3.254900000000000126e+00 4.217538113316757954e+05
3.283999999999999808e+00 4.338492910582676413e+05
3.313000000000000167e+00 4.449370146936060628e+05
3.342099999999999849e+00 4.539974033926167176e+05
3.371199999999999974e+00 4.615573291341589647e+05
3.400199999999999889e+00 4.686653804633807740e+05
3.429300000000000015e+00 4.754094652634113445e+05
3.458299999999999930e+00 4.810523395041683107e+05
3.487400000000000055e+00 4.848199803757893969e+05
3.516500000000000181e+00 4.862857631418046658e+05
3.545500000000000096e+00 4.856629258252609288e+05
3.574600000000000222e+00 4.835572514354929444e+05
3.603699999999999903e+00 4.805408889299611910e+05
3.632699999999999818e+00 4.770338273467743420e+05
3.661799999999999944e+00 4.733765837182501564e+05
3.690799999999999859e+00 4.697821697466088226e+05
3.719899999999999984e+00 4.666746175307268277e+05
3.749000000000000110e+00 4.645015138501828769e+05
3.778000000000000025e+00 4.630936743141598417e+05
3.807100000000000151e+00 4.615396621014416451e+05
3.836199999999999832e+00 4.589691399113842635e+05
3.865200000000000191e+00 4.554129656928831828e+05
3.894299999999999873e+00 4.513474087819854030e+05
3.923299999999999788e+00 4.465918870998966158e+05
3.952399999999999913e+00 4.408654323116592714e+05
3.981500000000000039e+00 4.344247869944494450e+05
4.010500000000000398e+00 4.279333512280535069e+05
4.039600000000000080e+00 4.222247998447750579e+05
4.068599999999999994e+00 4.176665711756258970e+05
4.097699999999999676e+00 4.140690179480814841e+05
4.126800000000000246e+00 4.108893731475478853e+05
4.155800000000000161e+00 4.075077178831932251e+05
4.184899999999999842e+00 4.037639349648411735e+05
4.214000000000000412e+00 3.998888271504523000e+05
4.243000000000000327e+00 3.962097783585765865e+05
4.272100000000000009e+00 3.932417029566128622e+05
4.301099999999999923e+00 3.914035831093261368e+05
4.330199999999999605e+00 3.904212853712578653e+05
4.359300000000000175e+00 3.893239602973273722e+05
4.388300000000000090e+00 3.874213831165854936e+05
4.417399999999999771e+00 3.845218391269693966e+05
4.446399999999999686e+00 3.804913074432500289e+05
4.475500000000000256e+00 3.753284627713297959e+05
4.504599999999999937e+00 3.693619883039961569e+05
4.533599999999999852e+00 3.632782115783958579e+05
4.562700000000000422e+00 3.577557624457927304e+05
4.591800000000000104e+00 3.527396473417324014e+05
4.620800000000000018e+00 3.474834018538958044e+05
4.649899999999999700e+00 3.415834791680147173e+05
4.678899999999999615e+00 3.355881970708270674e+05
4.708000000000000185e+00 3.305092572500942624e+05
4.737099999999999866e+00 3.269545371926255175e+05
4.766099999999999781e+00 3.249749861197005375e+05
4.795200000000000351e+00 3.243205761947270366e+05
4.824300000000000033e+00 3.247821952973324805e+05
4.853299999999999947e+00 3.264814683118145913e+05
4.882399999999999629e+00 3.294806728912890540e+05
4.911400000000000432e+00 3.332373185615163529e+05
4.940500000000000114e+00 3.369064576917118393e+05
4.969599999999999795e+00 3.400128307666848414e+05
4.998599999999999710e+00 3.426056785041872645e+05
5.027700000000000280e+00 3.450482706777724088e+05
5.056700000000000195e+00 3.479815134271871648e+05
5.085799999999999876e+00 3.517737679963688133e+05
5.114899999999999558e+00 3.562823200997610111e+05
5.143900000000000361e+00 3.612413054423559806e+05
5.173000000000000043e+00 3.663369648548350669e+05
5.202099999999999724e+00 3.709818017726133694e+05
5.231099999999999639e+00 3.743041492364234873e+05
5.260200000000000209e+00 3.755630194579822128e+05
5.289200000000000124e+00 3.747838443642307539e+05
5.318299999999999805e+00 3.728427592329424224e+05
5.347400000000000375e+00 3.707543653018441983e+05
5.376400000000000290e+00 3.691435340259142104e+05
5.405499999999999972e+00 3.681135153271164163e+05
5.434499999999999886e+00 3.675134475309220725e+05
5.463599999999999568e+00 3.673285684505362879e+05
5.492700000000000138e+00 3.675264367661898141e+05
5.521700000000000053e+00 3.679566963175723213e+05
5.550799999999999734e+00 3.684765099032020080e+05
5.579900000000000304e+00 3.692777726726155379e+05
5.608900000000000219e+00 3.709121555939886603e+05
5.637999999999999901e+00 3.737462840736929211e+05
5.666999999999999815e+00 3.773605822495687171e+05
5.696100000000000385e+00 3.808028200662732124e+05
5.725200000000000067e+00 3.835212868984275265e+05
5.754199999999999982e+00 3.857954037323128432e+05
5.783299999999999663e+00 3.882664251583062578e+05
5.812400000000000233e+00 3.914023897603054065e+05
5.841400000000000148e+00 3.953911474050710094e+05
5.870499999999999829e+00 4.002116268012941582e+05
5.899499999999999744e+00 4.060958060031866771e+05
5.928600000000000314e+00 4.135123798404854606e+05
5.957699999999999996e+00 4.226997445238304208e+05
5.986699999999999910e+00 4.335559680365669774e+05
6.015799999999999592e+00 4.458125102286381880e+05
6.044800000000000395e+00 4.591722891378359636e+05
6.073900000000000077e+00 4.735246783462099265e+05
6.102999999999999758e+00 4.888912993387140450e+05
6.131999999999999673e+00 5.053036409023996675e+05
6.161100000000000243e+00 5.227860694410369615e+05
6.190199999999999925e+00 5.414572341267815791e+05
6.219199999999999839e+00 5.615207323333359091e+05
6.248300000000000409e+00 5.829626313149298076e+05
6.277300000000000324e+00 6.052473882810923969e+05
6.306400000000000006e+00 6.275761928764621262e+05
6.335499999999999687e+00 6.492214770588213578e+05
6.364499999999999602e+00 6.698326547958616866e+05
6.393600000000000172e+00 6.890123400282008806e+05
6.422600000000000087e+00 7.060278329488064628e+05
6.451699999999999768e+00 7.201826407571007730e+05
6.480800000000000338e+00 7.311881972570420476e+05
6.509800000000000253e+00 7.396015391748843249e+05
6.538899999999999935e+00 7.465746493482644437e+05
6.567999999999999616e+00 7.527752902703833533e+05
6.597000000000000419e+00 7.584576443464881741e+05
6.626100000000000101e+00 7.640902041014253628e+05
6.655100000000000016e+00 7.699534848636984825e+05
6.684199999999999697e+00 7.755134076183348661e+05
6.713300000000000267e+00 7.798856877914610086e+05
6.742300000000000182e+00 7.828399102467133198e+05
6.771399999999999864e+00 7.849243508573903237e+05
6.800500000000000433e+00 7.868384718860494904e+05
6.829500000000000348e+00 7.891852636627184693e+05
6.858600000000000030e+00 7.922185955997449346e+05
6.887599999999999945e+00 7.954668836085712537e+05
6.916699999999999626e+00 7.982350565691726515e+05
6.945800000000000196e+00 8.001125304080280475e+05
6.974800000000000111e+00 8.007128902963205473e+05
7.003899999999999793e+00 7.995605518736065133e+05
7.032899999999999707e+00 7.969248482352944557e+05
7.062000000000000277e+00 7.944971708574133227e+05
7.091099999999999959e+00 7.945852831118532922e+05
7.120099999999999874e+00 7.987106425437045982e+05
7.149200000000000443e+00 8.066377058185152709e+05
7.178300000000000125e+00 8.167929217143700225e+05
7.207300000000000040e+00 8.275716277904076269e+05
7.236399999999999721e+00 8.380196693935884396e+05
7.265399999999999636e+00 8.476684009517289232e+05
7.294500000000000206e+00 8.563158960897724610e+05
7.323599999999999888e+00 8.635546697765237186e+05
7.352599999999999802e+00 8.696124442220171914e+05
7.381700000000000372e+00 8.752808448228285415e+05
7.410700000000000287e+00 8.811968236664804863e+05
7.439799999999999969e+00 8.878124817997385981e+05
7.468899999999999650e+00 8.953398822975674411e+05
7.497899999999999565e+00 9.037193828135657823e+05
7.527000000000000135e+00 9.129243354647607775e+05
7.556099999999999817e+00 9.228104484917457448e+05
7.585099999999999731e+00 9.330108449323171517e+05
7.614200000000000301e+00 9.429917229459495284e+05
7.643200000000000216e+00 9.520864268371497747e+05
7.672299999999999898e+00 9.597869912251387723e+05
7.701399999999999579e+00 9.660406035635545850e+05
7.730400000000000382e+00 9.715206880665257340e+05
7.759500000000000064e+00 9.770838013820734341e+05
7.788599999999999746e+00 9.831975370709829731e+05
7.817599999999999660e+00 9.896378272146218223e+05
7.846700000000000230e+00 9.956754777255835943e+05
7.875700000000000145e+00 1.000655603945851326e+06
7.904799999999999827e+00 1.004612161317027174e+06
7.933900000000000396e+00 1.007974556822508806e+06
7.962900000000000311e+00 1.011145933945223340e+06
7.991999999999999993e+00 1.014374685519642313e+06
8.021000000000000796e+00 1.017640914763618843e+06
8.050100000000000477e+00 1.020825070832225611e+06
8.079200000000000159e+00 1.023519814582074876e+06
8.108200000000000074e+00 1.025432674534178921e+06
8.137299999999999756e+00 1.026660436742386897e+06
8.166399999999999437e+00 1.027579895877899020e+06
8.195399999999999352e+00 1.028183502097069053e+06
8.224500000000000810e+00 1.028427835342444247e+06
8.253500000000000725e+00 1.028580045848443173e+06
8.282600000000000406e+00 1.029104367959900177e+06
8.311700000000000088e+00 1.030184750893711927e+06
8.340700000000000003e+00 1.031668461647293763e+06
8.369799999999999685e+00 1.033274093330251868e+06
8.398799999999999599e+00 1.034664993978186394e+06
8.427899999999999281e+00 1.035701165636859136e+06
8.457000000000000739e+00 1.036362612162183621e+06
8.486000000000000654e+00 1.036568463395604398e+06
8.515100000000000335e+00 1.036378528418400791e+06
8.544200000000000017e+00 1.036063683063693112e+06
8.573199999999999932e+00 1.036057165387060726e+06
8.602299999999999613e+00 1.036831896533464780e+06
8.631299999999999528e+00 1.038612499179543229e+06
8.660399999999999210e+00 1.040924838505126187e+06
8.689500000000000668e+00 1.042812789336377871e+06
8.718500000000000583e+00 1.043584863555174787e+06
8.747600000000000264e+00 1.043278194355653715e+06
8.776699999999999946e+00 1.042195988429001067e+06
8.805699999999999861e+00 1.040667830086924136e+06
8.834799999999999542e+00 1.039227176126142032e+06
8.863799999999999457e+00 1.038378675601221854e+06
8.892899999999999139e+00 1.038508576269856771e+06
8.922000000000000597e+00 1.039409180754152592e+06
8.951000000000000512e+00 1.040478386399556184e+06
8.980100000000000193e+00 1.040983104936189135e+06
9.009100000000000108e+00 1.040475518541122321e+06
9.038199999999999790e+00 1.038951419794467045e+06
9.067299999999999471e+00 1.036864386732436717e+06
9.096299999999999386e+00 1.034910771004047710e+06
9.125400000000000844e+00 1.033458018978517735e+06
9.154500000000000526e+00 1.032017794634424965e+06
9.183500000000000441e+00 1.030059892353229807e+06
9.212600000000000122e+00 1.027339543939735973e+06
9.241600000000000037e+00 1.023712338897542446e+06
9.270699999999999719e+00 1.019150273535739630e+06
9.299799999999999400e+00 1.013721818885106710e+06
9.328799999999999315e+00 1.007645531133722281e+06
9.357900000000000773e+00 1.001426235313567217e+06
9.386900000000000688e+00 9.956782796747690300e+05
9.416000000000000369e+00 9.907433686914690770e+05
9.445100000000000051e+00 9.864550302414043108e+05
9.474099999999999966e+00 9.823226222014457453e+05
9.503199999999999648e+00 9.778874341110894457e+05
9.532299999999999329e+00 9.728611047672257992e+05
9.561299999999999244e+00 9.673108255469151773e+05
9.590400000000000702e+00 9.617988200401739450e+05
9.619400000000000617e+00 9.573059316529984353e+05
9.648500000000000298e+00 9.549316126091817860e+05
9.677599999999999980e+00 9.551018173075607046e+05
9.706599999999999895e+00 9.572510259377891198e+05
9.735699999999999577e+00 9.605023008142941399e+05
9.764799999999999258e+00 9.641332359968415694e+05
9.793799999999999173e+00 9.676481615241682157e+05
9.822900000000000631e+00 9.708142948498367332e+05
9.851900000000000546e+00 9.735505548809347674e+05
9.881000000000000227e+00 9.759583923775205621e+05
9.910099999999999909e+00 9.783263604619165417e+05
9.939099999999999824e+00 9.808827358773489250e+05
9.968199999999999505e+00 9.832666868019663962e+05
9.997199999999999420e+00 9.844422634562071180e+05
1.002630000000000088e+01 9.836388273824463831e+05
1.005540000000000056e+01 9.814095489434706978e+05
1.008440000000000047e+01 9.793451165982183302e+05
1.011350000000000016e+01 9.788749857547325082e+05
1.014259999999999984e+01 9.801491716148694977e+05
1.017159999999999975e+01 9.822727247098435182e+05
1.020069999999999943e+01 9.844156500359745696e+05
1.022969999999999935e+01 9.863053526526271598e+05
1.025880000000000081e+01 9.883845688092072960e+05
1.028790000000000049e+01 9.909765360790849663e+05
1.031690000000000040e+01 9.935081532042656327e+05
1.034600000000000009e+01 9.949976207658745116e+05
1.037500000000000000e+01 9.944440244982906152e+05
1.040409999999999968e+01 9.911910484340632102e+05
1.043319999999999936e+01 9.853405640662225196e+05
1.046219999999999928e+01 9.770738299212859711e+05
1.049130000000000074e+01 9.668791143964576768e+05
1.052040000000000042e+01 9.557189136486431817e+05
1.054940000000000033e+01 9.446982073016181821e+05
1.057850000000000001e+01 9.342606160203387262e+05
1.060749999999999993e+01 9.245662760571266990e+05
1.063659999999999961e+01 9.159599020223186817e+05
1.066569999999999929e+01 9.088837001958369510e+05
1.069469999999999921e+01 9.035366421924608294e+05
1.072380000000000067e+01 8.996102087716060923e+05
1.075290000000000035e+01 8.962941765202070819e+05
1.078190000000000026e+01 8.925922137784803053e+05
1.081099999999999994e+01 8.878268148351700511e+05
1.083999999999999986e+01 8.820524303867744748e+05
1.086909999999999954e+01 8.757759005637980299e+05
1.089819999999999922e+01 8.697238177724244306e+05
1.092719999999999914e+01 8.642153708138837246e+05
1.095630000000000059e+01 8.589328243938999949e+05
1.098530000000000051e+01 8.533669037238042802e+05
1.101440000000000019e+01 8.473830103442422114e+05
1.104349999999999987e+01 8.413604010724120308e+05
1.107249999999999979e+01 8.357924308443588670e+05
1.110159999999999947e+01 8.310201213632711442e+05
1.113069999999999915e+01 8.270406746231017169e+05
1.115970000000000084e+01 8.232688620754886651e+05
1.118880000000000052e+01 8.190773387968759052e+05
1.121780000000000044e+01 8.146473886702024611e+05
1.124690000000000012e+01 8.108953691558629507e+05
1.127599999999999980e+01 8.084683160874525784e+05
1.130499999999999972e+01 8.074780925727682188e+05
1.133409999999999940e+01 8.076866510212823050e+05
1.136309999999999931e+01 8.088415774944440927e+05
1.139220000000000077e+01 8.108288150329440832e+05
1.142130000000000045e+01 8.132527719269961817e+05
1.145030000000000037e+01 8.156994802210602211e+05
1.147940000000000005e+01 8.179627311955367913e+05
1.150849999999999973e+01 8.200791602696967311e+05
1.153749999999999964e+01 8.219130142831989797e+05
1.156659999999999933e+01 8.230090721739757573e+05
