# energy(eV) alpha
0.000000000000000000e+00 0.000000000000000000e+00
3.289999999999999869e-02 5.692533553805411151e-01
6.590000000000000024e-02 2.337363139578432225e+00
9.879999999999999893e-02 5.384235332334096569e+00
1.317000000000000115e-01 9.454636733621995859e+00
1.647000000000000131e-01 1.467083615350630410e+01
1.975999999999999979e-01 2.118656597318966561e+01
2.305000000000000104e-01 2.909325244496358565e+01
2.635000000000000120e-01 3.803356156198039173e+01
2.963999999999999968e-01 4.815018276806838315e+01
3.292999999999999816e-01 5.973788023230596878e+01
3.622000000000000219e-01 7.225385661981562180e+01
3.951999999999999957e-01 8.631546776815342525e+01
4.280999999999999805e-01 1.019630737059815999e+02
4.610000000000000209e-01 1.181045301676948895e+02
4.939999999999999947e-01 1.362998901883137535e+02
5.269000000000000350e-01 1.557526286756650791e+02
5.597999999999999643e-01 1.769675037250795810e+02
5.927999999999999936e-01 1.995465910527667859e+02
6.257000000000000339e-01 2.234227477254109147e+02
6.585999999999999632e-01 2.486192072371110271e+02
6.915999999999999925e-01 2.757680135544569566e+02
7.245000000000000329e-01 3.048663760394143765e+02
7.573999999999999622e-01 3.353848051724767174e+02
7.903999999999999915e-01 3.680359417705849410e+02
8.233000000000000318e-01 4.028048018359987736e+02
8.561999999999999611e-01 4.390833054980204793e+02
8.891999999999999904e-01 4.769121114528367684e+02
9.221000000000000307e-01 5.177538341987502690e+02
9.549999999999999600e-01 5.610019436219499767e+02
9.879000000000000004e-01 6.058812451212623955e+02
1.020899999999999919e+00 6.533174490451413021e+02
1.053800000000000070e+00 7.041499003967520594e+02
1.086699999999999999e+00 7.567451323103973664e+02
1.119699999999999918e+00 8.130584037624181519e+02
1.152600000000000069e+00 8.721129127506143277e+02
1.185499999999999998e+00 9.350585766253636848e+02
1.218499999999999917e+00 1.000035599195627810e+03
1.251400000000000068e+00 1.068999876554762068e+03
1.284299999999999997e+00 1.143240803560372115e+03
1.317299999999999915e+00 1.221951276485084463e+03
1.350200000000000067e+00 1.305082660351534741e+03
1.383099999999999996e+00 1.391681527133120653e+03
1.416099999999999914e+00 1.484294747105523584e+03
1.449000000000000066e+00 1.582888706379059840e+03
1.481899999999999995e+00 1.689003800218374408e+03
1.514799999999999924e+00 1.801629403755852309e+03
1.547800000000000065e+00 1.923651183016252162e+03
1.580699999999999994e+00 2.052504140976957842e+03
1.613599999999999923e+00 2.192508055349462211e+03
1.646600000000000064e+00 2.342765182192924385e+03
1.679499999999999993e+00 2.506103845642827764e+03
1.712399999999999922e+00 2.684441772865189705e+03
1.745400000000000063e+00 2.879837279866071185e+03
1.778299999999999992e+00 3.095391353433326003e+03
1.811199999999999921e+00 3.337787707287368448e+03
1.844200000000000061e+00 3.608068418512671087e+03
1.877099999999999991e+00 3.918819560171473768e+03
1.909999999999999920e+00 4.276098802550197433e+03
1.943000000000000060e+00 4.701898573869477332e+03
1.975899999999999990e+00 5.220107618337752683e+03
2.008799999999999919e+00 5.859727704021634054e+03
2.041799999999999837e+00 6.657914824337074606e+03
2.074699999999999989e+00 7.601658307875354694e+03
2.107600000000000140e+00 8.634120062575846532e+03
2.140499999999999847e+00 9.757055715526475979e+03
2.173500000000000210e+00 1.115458185444486298e+04
2.206399999999999917e+00 1.293236034623714841e+04
2.239300000000000068e+00 1.487940141542394122e+04
2.272299999999999986e+00 1.671766652118462298e+04
2.305200000000000138e+00 1.857238351321350274e+04
2.338099999999999845e+00 2.073937703532269370e+04
2.371100000000000207e+00 2.305378561246357640e+04
2.403999999999999915e+00 2.499858376009108906e+04
2.436900000000000066e+00 2.637874458328271794e+04
2.469899999999999984e+00 2.760938502123163562e+04
2.502800000000000136e+00 2.924693388975723065e+04
2.535699999999999843e+00 3.139977222686556706e+04
2.568700000000000205e+00 3.356173401807565097e+04
2.601599999999999913e+00 3.555371477038687590e+04
2.634500000000000064e+00 3.789151591798014124e+04
2.667499999999999982e+00 4.086276991868887126e+04
2.700400000000000134e+00 4.424129139841301367e+04
2.733299999999999841e+00 4.783977020716462721e+04
2.766199999999999992e+00 5.199169488400583941e+04
2.799199999999999910e+00 5.713715372239007411e+04
2.832100000000000062e+00 6.317065642780761118e+04
2.865000000000000213e+00 6.952459669190165005e+04
2.898000000000000131e+00 7.554916824049253773e+04
2.930899999999999839e+00 8.091803404284891440e+04
2.963799999999999990e+00 8.636866787659288093e+04
2.996799999999999908e+00 9.365213313534544432e+04
3.029700000000000060e+00 1.040888896932248899e+05
3.062600000000000211e+00 1.167675367286380351e+05
3.095600000000000129e+00 1.283804492041297926e+05
3.128499999999999837e+00 1.361259600813629222e+05
3.161399999999999988e+00 1.411518101683865534e+05
3.194399999999999906e+00 1.465024703704105923e+05
3.227300000000000058e+00 1.530017886740082758e+05
3.260200000000000209e+00 1.595118647960222152e+05
3.293099999999999916e+00 1.651116001796119963e+05
3.326099999999999834e+00 1.697799309000196226e+05
3.358999999999999986e+00 1.737012074742395198e+05
3.391900000000000137e+00 1.763408915040782013e+05
3.424900000000000055e+00 1.787646629068489128e+05
3.457800000000000207e+00 1.836064939428175858e+05
3.490699999999999914e+00 1.929844995430325216e+05
3.523699999999999832e+00 2.076280439132649044e+05
3.556599999999999984e+00 2.264858818331999646e+05
3.589500000000000135e+00 2.458169958898027544e+05
3.622500000000000053e+00 2.602317097899339278e+05
3.655400000000000205e+00 2.670198546145100845e+05
3.688299999999999912e+00 2.668188974354490638e+05
3.721299999999999830e+00 2.631717226759152836e+05
3.754199999999999982e+00 2.598171595045125287e+05
3.787100000000000133e+00 2.571588763114136818e+05
3.820100000000000051e+00 2.540874236798751226e+05
3.853000000000000203e+00 2.520467599070990400e+05
3.885899999999999910e+00 2.545194496402729419e+05
3.918800000000000061e+00 2.619848627031766227e+05
3.951799999999999979e+00 2.717464028724959935e+05
3.984700000000000131e+00 2.824099036786266952e+05
4.017599999999999838e+00 2.936958322096331394e+05
4.050600000000000200e+00 3.040561224933783524e+05
4.083499999999999908e+00 3.123806807747330167e+05
4.116399999999999615e+00 3.182459407259905129e+05
4.149399999999999977e+00 3.201886454236055142e+05
4.182299999999999685e+00 3.181520391098686378e+05
4.215200000000000280e+00 3.142678498552117962e+05
4.248199999999999754e+00 3.106010601757068653e+05
4.281100000000000350e+00 3.077423805564655340e+05
4.314000000000000057e+00 3.057863407862204476e+05
4.347000000000000419e+00 3.053560116870388738e+05
4.379900000000000126e+00 3.077801886363514932e+05
4.412799999999999834e+00 3.136324638834092766e+05
4.445800000000000196e+00 3.217820821579738986e+05
4.478699999999999903e+00 3.311888526673045126e+05
4.511599999999999611e+00 3.416566359073983622e+05
4.544500000000000206e+00 3.527304132941873977e+05
4.577499999999999680e+00 3.637655930024240515e+05
4.610400000000000276e+00 3.745544016753619653e+05
4.643299999999999983e+00 3.844662543347384199e+05
4.676300000000000345e+00 3.927996192292663036e+05
4.709200000000000053e+00 3.998842368318502558e+05
4.742099999999999760e+00 4.062216487810583203e+05
4.775100000000000122e+00 4.117328303649395239e+05
4.807999999999999829e+00 4.162177749050981947e+05
4.840900000000000425e+00 4.192687395050221239e+05
4.873899999999999899e+00 4.209545503937490867e+05
4.906799999999999606e+00 4.219344233359767823e+05
4.939700000000000202e+00 4.224717185176176135e+05
4.972699999999999676e+00 4.223695306108758668e+05
5.005600000000000271e+00 4.219301085420406307e+05
5.038499999999999979e+00 4.223175719415061758e+05
5.071399999999999686e+00 4.245466668321642792e+05
5.104400000000000048e+00 4.275856902015028754e+05
5.137299999999999756e+00 4.288213061490255059e+05
5.170200000000000351e+00 4.273770203750287765e+05
5.203199999999999825e+00 4.247022852117200382e+05
5.236100000000000421e+00 4.226479801607981790e+05
5.269000000000000128e+00 4.222315499766174471e+05
5.301999999999999602e+00 4.232341416581301019e+05
5.334900000000000198e+00 4.251749414020584663e+05
5.367799999999999905e+00 4.282349651978226611e+05
5.400800000000000267e+00 4.320992607026383048e+05
5.433699999999999974e+00 4.358344990514967940e+05
5.466599999999999682e+00 4.392478435067147948e+05
5.499600000000000044e+00 4.426450042143398896e+05
5.532499999999999751e+00 4.458487606645236956e+05
5.565400000000000347e+00 4.484887828228269354e+05
5.598399999999999821e+00 4.505460373958206619e+05
5.631300000000000416e+00 4.522371291150832549e+05
5.664200000000000124e+00 4.532515189992623636e+05
5.697099999999999831e+00 4.531696052374324063e+05
5.730100000000000193e+00 4.525289459763346822e+05
5.762999999999999901e+00 4.516181461924409959e+05
5.795899999999999608e+00 4.500897315121370484e+05
5.828899999999999970e+00 4.478953090186155750e+05
5.861799999999999677e+00 4.452389402251928695e+05
5.894700000000000273e+00 4.422676033575168694e+05
5.927699999999999747e+00 4.388975885804087739e+05
5.960600000000000342e+00 4.347335916230846196e+05
5.993500000000000050e+00 4.296207968589807278e+05
6.026500000000000412e+00 4.236609968795453897e+05
6.059400000000000119e+00 4.165814523997418582e+05
6.092299999999999827e+00 4.087894572372717666e+05
6.125300000000000189e+00 4.015009133043340989e+05
6.158199999999999896e+00 3.954148066966022016e+05
6.191099999999999604e+00 3.904675350764839677e+05
6.224099999999999966e+00 3.861802165769980638e+05
6.256999999999999673e+00 3.819435867768857279e+05
6.289900000000000269e+00 3.775179858091360657e+05
6.322799999999999976e+00 3.730678144849121454e+05
6.355800000000000338e+00 3.690763028756630956e+05
6.388700000000000045e+00 3.660648891881218879e+05
6.421599999999999753e+00 3.645108668836922152e+05
6.454600000000000115e+00 3.643006222888430348e+05
6.487499999999999822e+00 3.646433576114213211e+05
6.520400000000000418e+00 3.646057530291122384e+05
6.553399999999999892e+00 3.638848470873273909e+05
6.586299999999999599e+00 3.629870868655808154e+05
6.619200000000000195e+00 3.627352358263683855e+05
6.652199999999999669e+00 3.632836857269674656e+05
6.685100000000000264e+00 3.642695253072231426e+05
6.717999999999999972e+00 3.657523779201986035e+05
6.751000000000000334e+00 3.680597844909632113e+05
6.783900000000000041e+00 3.712737985770804225e+05
6.816799999999999748e+00 3.753081019804132520e+05
6.849700000000000344e+00 3.798947801766483462e+05
6.882699999999999818e+00 3.846063678810021956e+05
6.915600000000000414e+00 3.886181549904592684e+05
6.948500000000000121e+00 3.912320221245181747e+05
6.981499999999999595e+00 3.922855693850290845e+05
7.014400000000000190e+00 3.921342173400601023e+05
7.047299999999999898e+00 3.911869974255612469e+05
7.080300000000000260e+00 3.898851170862030121e+05
7.113199999999999967e+00 3.889051797237597639e+05
7.146099999999999675e+00 3.884362841950603179e+05
7.179100000000000037e+00 3.878898732453101547e+05
7.211999999999999744e+00 3.866685470284522162e+05
7.244900000000000340e+00 3.848183447762997239e+05
7.277899999999999814e+00 3.826607209133401630e+05
7.310800000000000409e+00 3.805615069104898721e+05
7.343700000000000117e+00 3.788906439889253234e+05
7.376699999999999591e+00 3.783433074333964614e+05
7.409600000000000186e+00 3.798114193606660701e+05
7.442499999999999893e+00 3.836666323466604808e+05
7.475399999999999601e+00 3.895375770683549927e+05
7.508399999999999963e+00 3.964752767496932647e+05
7.541299999999999670e+00 4.036820111240307451e+05
7.574200000000000266e+00 4.107940882548798108e+05
7.607199999999999740e+00 4.173734799955907511e+05
7.640100000000000335e+00 4.227926445132976514e+05
7.673000000000000043e+00 4.266551464158053859e+05
7.706000000000000405e+00 4.287915991604281589e+05
7.738900000000000112e+00 4.292786032804531860e+05
7.771799999999999820e+00 4.288681157872953336e+05
7.804800000000000182e+00 4.288146947600184358e+05
7.837699999999999889e+00 4.302574935040845885e+05
7.870599999999999596e+00 4.337307122977019171e+05
7.903599999999999959e+00 4.390208552791749244e+05
7.936499999999999666e+00 4.456539147488335148e+05
7.969400000000000261e+00 4.534554764402054134e+05
8.002399999999999736e+00 4.628885655346025014e+05
8.035299999999999443e+00 4.741593783458205289e+05
8.068199999999999150e+00 4.870211156327027711e+05
8.101100000000000634e+00 5.012808917188518681e+05
8.134100000000000108e+00 5.169302151201794622e+05
8.166999999999999815e+00 5.333250464851077413e+05
8.199899999999999523e+00 5.491069554571978515e+05
8.232900000000000773e+00 5.628618637246008730e+05
8.265800000000000480e+00 5.736879484354383312e+05
8.298700000000000188e+00 5.815288419593210565e+05
8.331699999999999662e+00 5.865059067613556981e+05
8.364599999999999369e+00 5.885913507927826140e+05
8.397500000000000853e+00 5.882230780895267380e+05
8.430500000000000327e+00 5.864478544660104671e+05
8.463400000000000034e+00 5.845832560901799006e+05
8.496299999999999741e+00 5.834102951414723648e+05
8.529299999999999216e+00 5.828488265561114531e+05
8.562200000000000699e+00 5.825941883935554652e+05
8.595100000000000406e+00 5.827216065265747020e+05
8.628000000000000114e+00 5.837249157326772111e+05
8.660999999999999588e+00 5.863739779954463011e+05
8.693899999999999295e+00 5.910391434264762793e+05
8.726800000000000779e+00 5.972636269667031011e+05
8.759800000000000253e+00 6.045553641277829884e+05
8.792699999999999960e+00 6.128221223123033997e+05
8.825599999999999667e+00 6.217536707671679324e+05
8.858599999999999142e+00 6.305344494812383782e+05
8.891500000000000625e+00 6.384479259224098641e+05
8.924400000000000333e+00 6.456453748629278271e+05
8.957399999999999807e+00 6.524143076301523251e+05
8.990299999999999514e+00 6.589700331552289426e+05
9.023199999999999221e+00 6.655679942011609674e+05
9.056200000000000472e+00 6.722778573857115116e+05
9.089100000000000179e+00 6.789031233811903512e+05
9.121999999999999886e+00 6.856757542828395963e+05
9.154999999999999361e+00 6.932818003613702022e+05
9.187900000000000844e+00 7.018346884339707904e+05
9.220800000000000551e+00 7.104145311531756306e+05
9.253700000000000259e+00 7.178076534647414228e+05
9.286699999999999733e+00 7.235098296173805138e+05
9.319599999999999440e+00 7.278110375225059688e+05
9.352499999999999147e+00 7.313295264950380661e+05
9.385500000000000398e+00 7.343639940183849540e+05
9.418400000000000105e+00 7.374750464414465241e+05
9.451299999999999812e+00 7.419999877332772594e+05
9.484299999999999287e+00 7.491797714453638764e+05
9.517200000000000770e+00 7.595940279691049363e+05
9.550100000000000477e+00 7.728275353115015896e+05
9.583099999999999952e+00 7.876588296877245884e+05
9.615999999999999659e+00 8.029277049823093694e+05
9.648899999999999366e+00 8.180380601641051471e+05
9.681900000000000617e+00 8.325789440206552390e+05
9.714800000000000324e+00 8.462102093947108369e+05
9.747700000000000031e+00 8.585063140760291135e+05
9.780699999999999505e+00 8.687122971794720506e+05
9.813599999999999213e+00 8.761037434080510866e+05
9.846500000000000696e+00 8.804510250267260708e+05
9.879400000000000404e+00 8.818688512629513862e+05
9.912399999999999878e+00 8.811824208952842746e+05
9.945299999999999585e+00 8.799404358706601197e+05
9.978199999999999292e+00 8.797006174354295945e+05
1.001120000000000054e+01 8.810469829442879418e+05
1.004410000000000025e+01 8.833314790128153982e+05
1.007699999999999996e+01 8.852748194639303256e+05
1.010999999999999943e+01 8.859445341263520531e+05
1.014289999999999914e+01 8.854818956210379256e+05
1.017580000000000062e+01 8.851966085713984212e+05
1.020880000000000010e+01 8.868314907324921805e+05
1.024169999999999980e+01 8.912309086360021029e+05
1.027459999999999951e+01 8.979946617972759996e+05
1.030760000000000076e+01 9.058631173104672926e+05
1.034050000000000047e+01 9.136627160779964179e+05
1.037340000000000018e+01 9.209065581284085056e+05
1.040629999999999988e+01 9.276132785691482713e+05
1.043929999999999936e+01 9.341522725255390396e+05
1.047220000000000084e+01 9.412517848414782202e+05
1.050510000000000055e+01 9.501547935523771448e+05
1.053810000000000002e+01 9.620643184881426860e+05
1.057099999999999973e+01 9.766857589528192766e+05
1.060389999999999944e+01 9.923954785391819896e+05
1.063690000000000069e+01 1.007188550424555899e+06
1.066980000000000040e+01 1.019441742031577160e+06
1.070270000000000010e+01 1.027675389148377813e+06
1.073569999999999958e+01 1.031199486159493448e+06
1.076859999999999928e+01 1.031760225821498898e+06
1.080150000000000077e+01 1.032539101605028147e+06
1.083450000000000024e+01 1.035860880005087820e+06
1.086739999999999995e+01 1.042458639278099523e+06
1.090029999999999966e+01 1.051243866019269219e+06
1.093329999999999913e+01 1.059881847122071777e+06
1.096620000000000061e+01 1.066234940635035979e+06
1.099910000000000032e+01 1.069809621323082363e+06
1.103200000000000003e+01 1.071810282125054626e+06
1.106499999999999950e+01 1.072572086274252972e+06
1.109789999999999921e+01 1.071184149959684350e+06
1.113080000000000069e+01 1.068077199409800349e+06
1.116380000000000017e+01 1.064890468831326114e+06
1.119669999999999987e+01 1.062380724938161438e+06
1.122959999999999958e+01 1.060188031652583973e+06
1.126260000000000083e+01 1.058795970815253211e+06
1.129550000000000054e+01 1.058480618579815375e+06
1.132840000000000025e+01 1.058143811135264114e+06
1.136139999999999972e+01 1.056621431930669351e+06
1.139429999999999943e+01 1.053961989533343818e+06
1.142719999999999914e+01 1.051114666318267118e+06
1.146020000000000039e+01 1.049134766071753344e+06
1.149310000000000009e+01 1.048360265980230295e+06
1.152599999999999980e+01 1.048205252352129202e+06
1.155899999999999928e+01 1.048458815133034950e+06
1.159190000000000076e+01 1.048998202703706920e+06
1.162480000000000047e+01 1.048988227849013638e+06
1.165770000000000017e+01 1.047255096733996528e+06
1.169069999999999965e+01 1.043341694708066061e+06
1.172359999999999935e+01 1.037855901298157754e+06
1.175650000000000084e+01 1.032214048067255528e+06
1.178950000000000031e+01 1.028320290335107711e+06
1.182240000000000002e+01 1.026972198501544655e+06
1.185529999999999973e+01 1.027131859634155291e+06
1.188829999999999920e+01 1.027403370069646509e+06
1.192120000000000068e+01 1.027914607059002854e+06
1.195410000000000039e+01 1.029754183679284761e+06
1.198709999999999987e+01 1.033046573190237861e+06
1.201999999999999957e+01 1.037298296664661495e+06
1.205289999999999928e+01 1.042782393868549727e+06
1.208590000000000053e+01 1.050036328663642751e+06
1.211880000000000024e+01 1.058768281102432869e+06
1.215169999999999995e+01 1.067729965037422255e+06
1.218469999999999942e+01 1.075499702902536839e+06
1.221759999999999913e+01 1.081364430643082596e+06
1.225050000000000061e+01 1.085593195413063979e+06
1.228340000000000032e+01 1.089055769160479773e+06
1.231639999999999979e+01 1.093060449679796118e+06
1.234929999999999950e+01 1.098664318813994760e+06
1.238219999999999921e+01 1.105999340283054160e+06
1.241520000000000046e+01 1.114589953245714074e+06
1.244810000000000016e+01 1.123250952145061921e+06
1.248099999999999987e+01 1.130401928583411034e+06
1.251399999999999935e+01 1.134837746602204395e+06
1.254690000000000083e+01 1.137013436066417489e+06
1.257980000000000054e+01 1.138717756627473282e+06
1.261280000000000001e+01 1.141161439894560259e+06
1.264569999999999972e+01 1.143616406519286567e+06
1.267859999999999943e+01 1.144606182180146920e+06
1.271160000000000068e+01 1.144187993795983260e+06
1.274450000000000038e+01 1.144473127709002001e+06
1.277740000000000009e+01 1.147281747981836088e+06
1.281029999999999980e+01 1.152315987921820255e+06
1.284329999999999927e+01 1.158411354157723719e+06
1.287620000000000076e+01 1.164902693527668715e+06
1.290910000000000046e+01 1.171396252177666640e+06
1.294209999999999994e+01 1.177272533389506163e+06
1.297499999999999964e+01 1.181943299756157212e+06
1.300789999999999935e+01 1.185506040855281055e+06
1.304090000000000060e+01 1.188550222894850420e+06
1.307380000000000031e+01 1.190966538999907207e+06
1.310670000000000002e+01 1.191688099373009289e+06
