# energy(eV) alpha
0.000000000000000000e+00 0.000000000000000000e+00
2.910000000000000087e-02 1.280729496930421041e+00
5.809999999999999887e-02 5.155611219152448577e+00
8.719999999999999973e-02 1.163664242893469769e+01
1.163000000000000006e-01 2.063354021967223062e+01
1.453000000000000125e-01 3.237258850543873479e+01
1.743999999999999995e-01 4.651277579876632018e+01
2.034999999999999865e-01 6.349245472936814849e+01
2.325000000000000122e-01 8.322835528492758783e+01
2.615999999999999992e-01 1.056552760813220573e+02
2.907000000000000139e-01 1.311530234613154846e+02
3.196999999999999842e-01 1.593274951724242214e+02
3.487999999999999989e-01 1.905156842996173907e+02
3.779000000000000137e-01 2.244510948357666962e+02
4.068999999999999839e-01 2.619350927864281289e+02
4.359999999999999987e-01 3.026383821966340406e+02
4.651000000000000134e-01 3.465471598977948702e+02
4.940999999999999837e-01 3.939845176601486401e+02
5.231999999999999984e-01 4.448320167170301715e+02
5.523000000000000131e-01 4.998492992294255828e+02
5.814000000000000279e-01 5.583669915455596993e+02
6.104000000000000536e-01 6.211904003856878944e+02
6.394999999999999574e-01 6.886747845553123852e+02
6.685999999999999721e-01 7.599286652058020763e+02
6.975999999999999979e-01 8.363502675539845086e+02
7.267000000000000126e-01 9.173391632129566915e+02
7.558000000000000274e-01 1.004479092202669221e+03
7.848000000000000531e-01 1.097330233472800955e+03
8.138999999999999568e-01 1.195206207185451376e+03
8.429999999999999716e-01 1.299832072879117959e+03
8.719999999999999973e-01 1.411892387271534062e+03
9.011000000000000121e-01 1.530725695308592776e+03
9.302000000000000268e-01 1.657652788364957132e+03
9.592000000000000526e-01 1.792758118402106220e+03
9.882999999999999563e-01 1.938734037894480934e+03
1.017400000000000082e+00 2.093693386550300147e+03
1.046399999999999997e+00 2.259115725478471177e+03
1.075499999999999901e+00 2.437247132533530021e+03
1.104600000000000026e+00 2.629053234618485021e+03
1.133599999999999941e+00 2.835542515805057974e+03
1.162700000000000067e+00 3.059271790746286115e+03
1.191799999999999971e+00 3.301377372182158979e+03
1.220800000000000107e+00 3.564653180950929254e+03
1.249900000000000011e+00 3.853721642311157211e+03
1.278999999999999915e+00 4.171775319525150735e+03
1.308000000000000052e+00 4.523817968796201058e+03
1.337099999999999955e+00 4.916961694401951718e+03
1.366200000000000081e+00 5.362228184753344067e+03
1.395199999999999996e+00 5.872005122566088176e+03
1.424299999999999899e+00 6.465269437790550000e+03
1.453400000000000025e+00 7.169250628865888757e+03
1.482399999999999940e+00 8.024201016486048502e+03
1.511500000000000066e+00 9.080326911117195777e+03
1.540599999999999969e+00 1.037960973434608604e+04
1.569700000000000095e+00 1.191282778190607314e+04
1.598700000000000010e+00 1.353899852716959685e+04
1.627799999999999914e+00 1.505137967787712660e+04
1.656900000000000039e+00 1.629667043407103120e+04
1.685899999999999954e+00 1.727982971531094518e+04
1.715000000000000080e+00 1.816961960048098626e+04
1.744099999999999984e+00 1.921421065997998085e+04
1.773099999999999898e+00 2.064950837016106743e+04
1.802200000000000024e+00 2.263520054397551939e+04
1.831299999999999928e+00 2.522631590613161825e+04
1.860300000000000065e+00 2.840675717842622180e+04
1.889399999999999968e+00 3.223343883338699743e+04
1.918500000000000094e+00 3.698368721244409244e+04
1.947500000000000009e+00 4.301688028534066689e+04
1.976599999999999913e+00 5.038442063172473718e+04
2.005700000000000038e+00 5.862926888857774611e+04
2.034699999999999953e+00 6.730502085973572684e+04
2.063800000000000079e+00 7.656378527426722576e+04
2.092900000000000205e+00 8.654323231833806494e+04
2.121900000000000119e+00 9.642283983086692751e+04
2.150999999999999801e+00 1.049408390874234319e+05
2.180099999999999927e+00 1.116426618146233668e+05
2.209099999999999842e+00 1.174615557684353989e+05
2.238199999999999967e+00 1.240222983626839705e+05
2.267300000000000093e+00 1.320092959941319423e+05
2.296300000000000008e+00 1.408997292267979938e+05
2.325400000000000134e+00 1.501039916737400636e+05
2.354499999999999815e+00 1.599985214176120935e+05
2.383500000000000174e+00 1.717971833741386945e+05
2.412599999999999856e+00 1.864980457853986882e+05
2.441699999999999982e+00 2.040032741036402876e+05
2.470699999999999896e+00 2.229502904927736963e+05
2.499800000000000022e+00 2.409924216413721151e+05
2.528900000000000148e+00 2.555915283593309869e+05
2.557900000000000063e+00 2.654952761950252461e+05
2.587000000000000188e+00 2.713986623154228437e+05
2.616099999999999870e+00 2.747943322346446221e+05
2.645199999999999996e+00 2.776086359780267812e+05
2.674199999999999910e+00 2.824482383013283252e+05
2.703300000000000036e+00 2.912594141928509343e+05
2.732400000000000162e+00 3.041793218127751024e+05
2.761400000000000077e+00 3.199551747013989370e+05
2.790500000000000203e+00 3.366888990414573927e+05
2.819599999999999884e+00 3.522990732729745214e+05
2.848599999999999799e+00 3.641363250286527327e+05
2.877699999999999925e+00 3.700548193494149018e+05
2.906800000000000050e+00 3.705036588843491627e+05
2.935799999999999965e+00 3.683789448448782787e+05
2.964900000000000091e+00 3.672260832956542727e+05
2.994000000000000217e+00 3.692331674182967399e+05
3.023000000000000131e+00 3.743833770143178408e+05
3.052099999999999813e+00 3.814561580802978133e+05
3.081199999999999939e+00 3.893608216573500540e+05
3.110199999999999854e+00 3.974312805581542780e+05
3.139299999999999979e+00 4.052326287257763324e+05
3.168400000000000105e+00 4.123615581328015542e+05
3.197400000000000020e+00 4.184410921790068387e+05
3.226500000000000146e+00 4.237976848298842669e+05
3.255599999999999827e+00 4.294693520550286048e+05
3.284600000000000186e+00 4.359784075480289757e+05
3.313699999999999868e+00 4.429462235201364383e+05
3.342799999999999994e+00 4.498753837370917900e+05
3.371799999999999908e+00 4.567152578465380939e+05
3.400900000000000034e+00 4.636352132160231122e+05
3.430000000000000160e+00 4.705233651919359108e+05
3.459000000000000075e+00 4.769396162144408445e+05
3.488100000000000200e+00 4.822861579529516748e+05
3.517199999999999882e+00 4.859712718924059882e+05
3.546199999999999797e+00 4.878239348088728730e+05
3.575299999999999923e+00 4.882502974227950908e+05
3.604400000000000048e+00 4.876461014389660559e+05
3.633500000000000174e+00 4.859580507073603221e+05
3.662500000000000089e+00 4.827695116594090359e+05
3.691600000000000215e+00 4.780320525012229919e+05
3.720699999999999896e+00 4.722724364172923961e+05
3.749699999999999811e+00 4.658961737473763642e+05
3.778799999999999937e+00 4.589421951386192231e+05
3.807900000000000063e+00 4.516852379682323663e+05
3.836899999999999977e+00 4.448058538798531517e+05
3.866000000000000103e+00 4.388909336263751029e+05
3.895099999999999785e+00 4.338911059505787562e+05
3.924100000000000144e+00 4.294012132629569969e+05
3.953199999999999825e+00 4.251718886040850775e+05
3.982299999999999951e+00 4.212731094836075790e+05
4.011300000000000310e+00 4.181090324440174154e+05
4.040399999999999991e+00 4.161703714841906331e+05
4.069499999999999673e+00 4.154129047635046882e+05
4.098499999999999588e+00 4.151678085673335590e+05
4.127600000000000158e+00 4.146958671697069658e+05
4.156699999999999839e+00 4.135195615488521871e+05
4.185699999999999754e+00 4.115214619186464697e+05
4.214800000000000324e+00 4.091073270933798631e+05
4.243900000000000006e+00 4.068772528646939900e+05
4.272899999999999920e+00 4.051588552330626408e+05
4.301999999999999602e+00 4.038257503744988935e+05
4.331100000000000172e+00 4.024164172283490770e+05
4.360100000000000087e+00 4.005211770153611433e+05
4.389199999999999768e+00 3.980751095781121985e+05
4.418300000000000338e+00 3.953813131410705973e+05
4.447300000000000253e+00 3.925982796475182404e+05
4.476399999999999935e+00 3.894459828389278264e+05
4.505499999999999616e+00 3.856121157812880119e+05
4.534500000000000419e+00 3.812821276514155907e+05
4.563600000000000101e+00 3.769746611325208214e+05
4.592699999999999783e+00 3.730288138424073695e+05
4.621699999999999697e+00 3.695897011338693555e+05
4.650800000000000267e+00 3.666458615748701850e+05
4.679899999999999949e+00 3.639510456136095454e+05
4.708999999999999631e+00 3.611792272085770965e+05
4.738000000000000433e+00 3.581723678300883621e+05
4.767100000000000115e+00 3.550523035703517962e+05
4.796199999999999797e+00 3.520531604983365396e+05
4.825199999999999712e+00 3.494523436928347219e+05
4.854300000000000281e+00 3.475064866386880167e+05
4.883399999999999963e+00 3.464374934820156777e+05
4.912399999999999878e+00 3.465414383341148496e+05
4.941499999999999559e+00 3.478765213617245317e+05
4.970600000000000129e+00 3.498976381613533013e+05
4.999600000000000044e+00 3.517673609674597392e+05
5.028699999999999726e+00 3.529472617677106173e+05
5.057800000000000296e+00 3.533344172792923055e+05
5.086800000000000210e+00 3.532657379213580280e+05
5.115899999999999892e+00 3.533414834552307730e+05
5.144999999999999574e+00 3.540143679036922404e+05
5.174000000000000377e+00 3.553667339871814474e+05
5.203100000000000058e+00 3.573287386865075096e+05
5.232199999999999740e+00 3.596297567766599241e+05
5.261199999999999655e+00 3.616855713521696161e+05
5.290300000000000225e+00 3.626277899480432970e+05
5.319399999999999906e+00 3.618915113296093768e+05
5.348399999999999821e+00 3.599307615252144169e+05
5.377500000000000391e+00 3.577062003671237035e+05
5.406600000000000072e+00 3.559818073283521808e+05
5.435599999999999987e+00 3.551039250729437917e+05
5.464699999999999669e+00 3.551332703482955112e+05
5.493800000000000239e+00 3.560336628739453154e+05
5.522800000000000153e+00 3.576069636996215559e+05
5.551899999999999835e+00 3.595345340317055234e+05
5.581000000000000405e+00 3.615777422769361874e+05
5.610000000000000320e+00 3.637008968831888633e+05
5.639100000000000001e+00 3.661532966738363029e+05
5.668199999999999683e+00 3.694242916009407490e+05
5.697300000000000253e+00 3.737554767886145855e+05
5.726300000000000168e+00 3.787908270702920854e+05
5.755399999999999849e+00 3.839137842697902815e+05
5.784500000000000419e+00 3.889457674147278885e+05
5.813500000000000334e+00 3.942520516300107120e+05
5.842600000000000016e+00 4.002141744672333589e+05
5.871699999999999697e+00 4.067610122303420212e+05
5.900699999999999612e+00 4.135477994232346537e+05
5.929800000000000182e+00 4.204641933543308405e+05
5.958899999999999864e+00 4.276376993471743772e+05
5.987899999999999778e+00 4.353256366719995276e+05
6.017000000000000348e+00 4.438384648542472278e+05
6.046100000000000030e+00 4.532353258147026645e+05
6.075099999999999945e+00 4.634023346150579164e+05
6.104199999999999626e+00 4.743623297532520373e+05
6.133300000000000196e+00 4.862836520622529788e+05
6.162300000000000111e+00 4.993027536455029622e+05
6.191399999999999793e+00 5.135196301460011164e+05
6.220500000000000362e+00 5.289935475997067988e+05
6.249500000000000277e+00 5.456876016737751197e+05
6.278599999999999959e+00 5.635272205936544342e+05
6.307699999999999640e+00 5.822706746845499147e+05
6.336700000000000443e+00 6.012955552635843633e+05
6.365800000000000125e+00 6.197666630866728956e+05
6.394899999999999807e+00 6.369722836837440263e+05
6.423899999999999721e+00 6.527251524015202885e+05
6.453000000000000291e+00 6.673683201642653439e+05
6.482099999999999973e+00 6.808490371500190813e+05
6.511099999999999888e+00 6.924358448481712257e+05
6.540199999999999569e+00 7.015653754748724168e+05
6.569300000000000139e+00 7.088152221857396653e+05
6.598300000000000054e+00 7.157008172096739290e+05
6.627399999999999736e+00 7.234968115088683553e+05
6.656500000000000306e+00 7.324328713772229385e+05
6.685500000000000220e+00 7.418249865337531082e+05
6.714599999999999902e+00 7.507146054107600357e+05
6.743699999999999584e+00 7.584419553794158855e+05
6.772800000000000153e+00 7.647912039600963471e+05
6.801800000000000068e+00 7.698770351223304169e+05
6.830899999999999750e+00 7.739954987745804247e+05
6.860000000000000320e+00 7.775955553947682492e+05
6.889000000000000234e+00 7.810970433046182152e+05
6.918099999999999916e+00 7.845987197855961276e+05
6.947199999999999598e+00 7.879866099898072425e+05
6.976200000000000401e+00 7.912724424930569949e+05
7.005300000000000082e+00 7.946188108441855293e+05
7.034399999999999764e+00 7.979271974420835031e+05
7.063399999999999679e+00 8.010941340513095492e+05
7.092500000000000249e+00 8.045569658674991224e+05
7.121599999999999930e+00 8.090051231522141024e+05
7.150599999999999845e+00 8.150459498952036956e+05
7.179700000000000415e+00 8.230260724425127264e+05
7.208800000000000097e+00 8.325588663907150039e+05
7.237800000000000011e+00 8.427966771831018850e+05
7.266899999999999693e+00 8.529798129080096260e+05
7.296000000000000263e+00 8.624839681469511706e+05
7.325000000000000178e+00 8.706649559562926879e+05
7.354099999999999859e+00 8.773141258875245694e+05
7.383200000000000429e+00 8.829435013931409921e+05
7.412200000000000344e+00 8.882639544865270145e+05
7.441300000000000026e+00 8.937782180695600109e+05
7.470399999999999707e+00 8.997565026244926266e+05
7.499399999999999622e+00 9.065379084342548158e+05
7.528500000000000192e+00 9.144205729954595445e+05
7.557599999999999874e+00 9.231581858137674863e+05
7.586599999999999788e+00 9.320249651390193030e+05
7.615700000000000358e+00 9.403393763295253739e+05
7.644800000000000040e+00 9.477352218638763297e+05
7.673799999999999955e+00 9.541429413567320444e+05
7.702899999999999636e+00 9.595875023434469476e+05
7.732000000000000206e+00 9.641470589453484863e+05
7.761000000000000121e+00 9.682152237408452202e+05
7.790099999999999802e+00 9.723033443197010783e+05
7.819200000000000372e+00 9.766150978620421374e+05
7.848300000000000054e+00 9.810413190690610791e+05
7.877299999999999969e+00 9.853004871308887377e+05
7.906399999999999650e+00 9.890295092998967739e+05
7.935500000000000220e+00 9.917848588601156371e+05
7.964500000000000135e+00 9.935456175026368583e+05
7.993599999999999817e+00 9.949754163480671123e+05
8.022700000000000387e+00 9.966995659149640705e+05
8.051700000000000301e+00 9.988941907841719221e+05
8.080799999999999983e+00 1.001347437787406030e+06
8.109899999999999665e+00 1.003570117983230040e+06
8.138899999999999579e+00 1.004904547451008228e+06
8.167999999999999261e+00 1.005244213792160735e+06
8.197100000000000719e+00 1.005228118086725590e+06
8.226100000000000634e+00 1.005773830792468390e+06
8.255200000000000315e+00 1.007341926767048077e+06
8.284299999999999997e+00 1.009641832296484383e+06
8.313299999999999912e+00 1.011885175866582431e+06
8.342399999999999594e+00 1.013364602004803251e+06
8.371499999999999275e+00 1.014072611675001564e+06
8.400499999999999190e+00 1.014387793105660239e+06
8.429600000000000648e+00 1.014472409383660532e+06
8.458700000000000330e+00 1.014227463319691713e+06
8.487700000000000244e+00 1.013910923891968094e+06
8.516799999999999926e+00 1.013942541156246560e+06
8.545899999999999608e+00 1.014474772755420301e+06
8.574899999999999523e+00 1.015562240791313699e+06
8.603999999999999204e+00 1.017309165684926091e+06
8.633100000000000662e+00 1.019760191468789009e+06
8.662100000000000577e+00 1.022806994688942330e+06
8.691200000000000259e+00 1.026297421867240220e+06
8.720299999999999940e+00 1.030035751684427029e+06
8.749299999999999855e+00 1.033644028880679980e+06
8.778399999999999537e+00 1.036835665149966138e+06
8.807499999999999218e+00 1.039475507906869287e+06
8.836600000000000676e+00 1.041631113411913975e+06
8.865600000000000591e+00 1.043448071635282948e+06
8.894700000000000273e+00 1.045124274902733741e+06
8.923799999999999955e+00 1.046881739908327465e+06
8.952799999999999869e+00 1.048636738946801517e+06
8.981899999999999551e+00 1.049978246758853318e+06
9.010999999999999233e+00 1.050571919646322029e+06
9.039999999999999147e+00 1.050544089779728092e+06
9.069100000000000605e+00 1.050099222554510692e+06
9.098200000000000287e+00 1.049199577846131055e+06
9.127200000000000202e+00 1.047922756276248605e+06
9.156299999999999883e+00 1.046442799752286519e+06
9.185399999999999565e+00 1.044886250425139442e+06
9.214399999999999480e+00 1.042926739237771602e+06
9.243499999999999162e+00 1.040026102024177555e+06
9.272600000000000620e+00 1.035990362406389788e+06
9.301600000000000534e+00 1.031051080648571253e+06
9.330700000000000216e+00 1.025716940634182887e+06
9.359799999999999898e+00 1.020233099730410730e+06
9.388799999999999812e+00 1.014708094221751555e+06
9.417899999999999494e+00 1.009261830834329943e+06
9.446999999999999176e+00 1.004144872171859955e+06
9.476000000000000867e+00 9.995191873364803614e+05
9.505100000000000549e+00 9.954232176104169339e+05
9.534200000000000230e+00 9.916180848701525247e+05
9.563200000000000145e+00 9.878109519338279497e+05
9.592299999999999827e+00 9.839310904266360449e+05
9.621399999999999508e+00 9.802888764495905489e+05
9.650399999999999423e+00 9.774973957988875918e+05
9.679500000000000881e+00 9.762468418310127454e+05
9.708600000000000563e+00 9.771073757153826300e+05
9.737600000000000477e+00 9.799282972223574761e+05
9.766700000000000159e+00 9.839268941164225107e+05
9.795799999999999841e+00 9.883468455519052222e+05
9.824799999999999756e+00 9.927288068749214290e+05
9.853899999999999437e+00 9.967728712828871794e+05
9.882999999999999119e+00 1.000292266923087416e+06
9.912100000000000577e+00 1.003653816930759116e+06
9.941100000000000492e+00 1.007084250825273688e+06
9.970200000000000173e+00 1.009998580353821162e+06
9.999299999999999855e+00 1.011114857498872676e+06
1.002829999999999977e+01 1.009831023983192863e+06
1.005739999999999945e+01 1.007131227517646970e+06
1.008649999999999913e+01 1.004529720118520316e+06
1.011550000000000082e+01 1.003225338025655714e+06
1.014460000000000051e+01 1.003935593381571467e+06
1.017370000000000019e+01 1.006542026703122305e+06
1.020270000000000010e+01 1.010066537989396718e+06
1.023179999999999978e+01 1.013338304400717956e+06
1.026089999999999947e+01 1.015789839836028288e+06
1.028989999999999938e+01 1.017587312524008797e+06
1.031900000000000084e+01 1.018732841433433583e+06
1.034810000000000052e+01 1.018909187092618085e+06
1.037710000000000043e+01 1.017446949746693252e+06
1.040620000000000012e+01 1.013647526879251236e+06
1.043529999999999980e+01 1.007133398486314807e+06
1.046429999999999971e+01 9.981165421073476318e+05
1.049339999999999939e+01 9.872603638483926188e+05
1.052250000000000085e+01 9.753474546144816559e+05
1.055150000000000077e+01 9.633028546317311702e+05
1.058060000000000045e+01 9.519193698034229456e+05
1.060970000000000013e+01 9.412961859986648196e+05
1.063870000000000005e+01 9.313340601016617147e+05
1.066779999999999973e+01 9.222029410709163640e+05
1.069689999999999941e+01 9.143707405155508313e+05
1.072589999999999932e+01 9.080041890805850271e+05
1.075500000000000078e+01 9.026703289110616315e+05
1.078410000000000046e+01 8.976623546687574126e+05
1.081310000000000038e+01 8.924117414838781115e+05
1.084220000000000006e+01 8.866019655423065415e+05
1.087129999999999974e+01 8.801867918132314226e+05
1.090039999999999942e+01 8.735963949589537224e+05
1.092939999999999934e+01 8.675735675714331446e+05
1.095850000000000080e+01 8.625976577569614165e+05
1.098760000000000048e+01 8.586968676187053788e+05
1.101660000000000039e+01 8.554745521430078661e+05
1.104570000000000007e+01 8.524476095159963006e+05
1.107479999999999976e+01 8.493239383790876018e+05
1.110379999999999967e+01 8.461573996938940836e+05
1.113289999999999935e+01 8.431763095100283390e+05
1.116200000000000081e+01 8.403450610976606840e+05
1.119100000000000072e+01 8.374138694992351811e+05
1.122010000000000041e+01 8.341689844411258819e+05
1.124920000000000009e+01 8.307519790644547902e+05
1.127820000000000000e+01 8.278426467269961722e+05
1.130729999999999968e+01 8.261526192148497794e+05
1.133639999999999937e+01 8.256891012183447601e+05
1.136539999999999928e+01 8.258188276412086561e+05
1.139450000000000074e+01 8.258616627585391980e+05
1.142360000000000042e+01 8.257822486200070707e+05
1.145260000000000034e+01 8.261045911559261149e+05
1.148170000000000002e+01 8.272250457455634605e+05
1.151079999999999970e+01 8.288912088682457106e+05
1.153979999999999961e+01 8.304634783992005978e+05
1.156889999999999930e+01 8.314931068277043523e+05
