# energy(eV) alpha
0.000000000000000000e+00 0.000000000000000000e+00
2.939999999999999905e-02 2.583268178680743858e+02
5.890000000000000097e-02 1.026457455185659910e+03
8.830000000000000349e-02 2.214974143797415763e+03
1.176999999999999991e-01 3.621852667409818423e+03
1.471999999999999975e-01 5.087470678957467499e+03
1.766000000000000070e-01 6.626358375422144491e+03
2.061000000000000054e-01 8.414490377847459968e+03
2.354999999999999871e-01 1.056733275351059274e+04
2.649000000000000243e-01 1.305048016328634549e+04
2.943999999999999950e-01 1.581400128884367041e+04
3.237999999999999767e-01 1.886961961613375752e+04
3.532000000000000139e-01 2.221356243298890695e+04
3.826999999999999846e-01 2.566687918068982253e+04
4.121000000000000218e-01 2.890714069774612290e+04
4.415999999999999925e-01 3.174561458221090288e+04
4.709999999999999742e-01 3.418928965290013730e+04
5.003999999999999559e-01 3.636262523625470203e+04
5.299000000000000377e-01 3.832590475570866693e+04
5.593000000000000194e-01 4.007779219259308593e+04
5.887000000000000011e-01 4.161263386793671089e+04
6.181999999999999718e-01 4.294813261845331726e+04
6.475999999999999535e-01 4.415612286059150210e+04
6.770000000000000462e-01 4.533556103644324321e+04
7.065000000000000169e-01 4.646585853732717806e+04
7.358999999999999986e-01 4.734916116290229547e+04
7.653999999999999693e-01 4.775101500630880037e+04
7.947999999999999510e-01 4.750936257315582043e+04
8.242000000000000437e-01 4.662550836464460008e+04
8.537000000000000144e-01 4.517605058239769278e+04
8.830999999999999961e-01 4.325860998205753276e+04
9.124999999999999778e-01 4.106983844955490349e+04
9.419999999999999485e-01 3.891491114979276608e+04
9.714000000000000412e-01 3.706497905481091584e+04
1.000899999999999901e+00 3.561196439223154448e+04
1.030299999999999994e+00 3.449501701587220305e+04
1.059700000000000086e+00 3.369059611673178733e+04
1.089199999999999946e+00 3.323342341973545263e+04
1.118600000000000039e+00 3.313619354415379348e+04
1.147999999999999909e+00 3.331123003285441519e+04
1.177499999999999991e+00 3.354546648972359981e+04
1.206900000000000084e+00 3.363348092388008808e+04
1.236299999999999955e+00 3.351434992663031153e+04
1.265800000000000036e+00 3.325061902596893196e+04
1.295199999999999907e+00 3.289298540403811057e+04
1.324699999999999989e+00 3.244063127269815959e+04
1.354100000000000081e+00 3.185900545889463319e+04
1.383499999999999952e+00 3.120939479587076494e+04
1.413000000000000034e+00 3.066610299157082045e+04
1.442399999999999904e+00 3.039084422201591951e+04
1.471799999999999997e+00 3.042615683100666865e+04
1.501300000000000079e+00 3.069153680906916998e+04
1.530699999999999950e+00 3.106737866977218437e+04
1.560100000000000042e+00 3.144694029715127181e+04
1.589599999999999902e+00 3.172955144653489697e+04
1.618999999999999995e+00 3.186873754268365155e+04
1.648500000000000076e+00 3.194207272370349529e+04
1.677899999999999947e+00 3.207653522092405183e+04
1.707300000000000040e+00 3.232828305353819815e+04
1.736799999999999899e+00 3.267952566640587975e+04
1.766199999999999992e+00 3.312597892119663447e+04
1.795600000000000085e+00 3.371653431205473316e+04
1.825099999999999945e+00 3.455215092050612293e+04
1.854500000000000037e+00 3.581368112697923061e+04
1.883999999999999897e+00 3.773878069396709179e+04
1.913399999999999990e+00 4.048237413495489454e+04
1.942800000000000082e+00 4.404373667561014736e+04
1.972299999999999942e+00 4.835445778828864422e+04
2.001700000000000035e+00 5.340147346868633758e+04
2.031099999999999905e+00 5.920682920556544559e+04
2.060599999999999987e+00 6.589394685798576393e+04
2.089999999999999858e+00 7.357258063158599543e+04
2.119400000000000173e+00 8.208896747588914877e+04
2.148899999999999810e+00 9.126778674165056145e+04
2.178300000000000125e+00 1.010554229249823402e+05
2.207800000000000207e+00 1.114741207628560223e+05
2.237200000000000077e+00 1.225710392847022304e+05
2.266599999999999948e+00 1.343949713975850318e+05
2.296100000000000030e+00 1.467594188665139955e+05
2.325499999999999901e+00 1.590135828651656630e+05
2.354900000000000215e+00 1.699631446354860673e+05
2.384399999999999853e+00 1.783103701707636064e+05
2.413800000000000168e+00 1.835149331332953589e+05
2.443299999999999805e+00 1.861588568261897890e+05
2.472700000000000120e+00 1.873562339739105664e+05
2.502099999999999991e+00 1.883590122458511614e+05
2.531600000000000072e+00 1.905862782803384762e+05
2.560999999999999943e+00 1.950947379658167483e+05
2.590399999999999814e+00 2.022568773604167218e+05
2.619899999999999896e+00 2.120556574647595116e+05
2.649300000000000210e+00 2.243390120784163009e+05
2.678700000000000081e+00 2.386311782937518437e+05
2.708200000000000163e+00 2.539726089489924198e+05
2.737600000000000033e+00 2.689908331528308336e+05
2.767100000000000115e+00 2.825956695450526895e+05
2.796499999999999986e+00 2.943578200073608314e+05
2.825899999999999856e+00 3.044780521852052771e+05
2.855399999999999938e+00 3.132480126978624612e+05
2.884799999999999809e+00 3.206430784688711283e+05
2.914200000000000124e+00 3.266132054358716705e+05
2.943700000000000205e+00 3.316003906832466018e+05
2.973100000000000076e+00 3.367197990566500812e+05
3.002600000000000158e+00 3.429819845505030244e+05
3.032000000000000028e+00 3.504350100472122431e+05
3.061399999999999899e+00 3.586342397386722732e+05
3.090899999999999981e+00 3.673439179266050924e+05
3.120299999999999851e+00 3.765442064488739124e+05
3.149700000000000166e+00 3.858655961079062545e+05
3.179199999999999804e+00 3.945610508991392562e+05
3.208600000000000119e+00 4.019041722736454685e+05
3.237999999999999989e+00 4.075705690682904096e+05
3.267500000000000071e+00 4.118560893503796542e+05
3.296899999999999942e+00 4.152460980070682708e+05
3.326400000000000023e+00 4.179563778249222669e+05
3.355799999999999894e+00 4.199437665527868667e+05
3.385200000000000209e+00 4.210334999603753677e+05
3.414699999999999847e+00 4.210475440975166275e+05
3.444100000000000161e+00 4.202205339809824945e+05
3.473500000000000032e+00 4.191398701007803902e+05
3.503000000000000114e+00 4.180449727273245808e+05
3.532399999999999984e+00 4.165411726072457386e+05
3.561900000000000066e+00 4.138900564368561027e+05
3.591299999999999937e+00 4.093495193144122022e+05
3.620699999999999807e+00 4.028183473365969840e+05
3.650199999999999889e+00 3.948829074815824861e+05
3.679600000000000204e+00 3.863364776717222994e+05
3.709000000000000075e+00 3.779500471400035312e+05
3.738500000000000156e+00 3.705034121475040447e+05
3.767900000000000027e+00 3.645338354747651611e+05
3.797299999999999898e+00 3.602723338902806863e+05
3.826799999999999979e+00 3.578941247598469490e+05
3.856199999999999850e+00 3.574151435150335310e+05
3.885699999999999932e+00 3.583707652706174995e+05
3.915099999999999802e+00 3.597993489183396450e+05
3.944500000000000117e+00 3.608963378466119175e+05
3.974000000000000199e+00 3.615033439795888262e+05
4.003400000000000070e+00 3.619414186221216223e+05
4.032799999999999940e+00 3.623470513146250742e+05
4.062299999999999578e+00 3.625152577294495422e+05
4.091700000000000337e+00 3.624801931494485470e+05
4.121199999999999974e+00 3.629964711667954689e+05
4.150599999999999845e+00 3.648133042856308748e+05
4.179999999999999716e+00 3.680641555787353427e+05
4.209500000000000242e+00 3.722179287372623803e+05
4.238900000000000112e+00 3.765317388816501480e+05
4.268299999999999983e+00 3.805293798459214740e+05
4.297799999999999621e+00 3.841089289570610272e+05
4.327200000000000379e+00 3.873282368170748232e+05
4.356600000000000250e+00 3.899934541752876830e+05
4.386099999999999888e+00 3.915709596343091689e+05
4.415499999999999758e+00 3.917301403911547968e+05
4.445000000000000284e+00 3.905232580268455204e+05
4.474400000000000155e+00 3.880289943740027957e+05
4.503800000000000026e+00 3.844889502270155936e+05
4.533299999999999663e+00 3.803247491772599169e+05
4.562700000000000422e+00 3.760791987555191154e+05
4.592100000000000293e+00 3.720841316007268615e+05
4.621599999999999930e+00 3.681958474782151752e+05
4.650999999999999801e+00 3.640608980781325954e+05
4.680399999999999672e+00 3.596234345937389298e+05
4.709900000000000198e+00 3.551170170831170981e+05
4.739300000000000068e+00 3.507274113566285814e+05
4.768799999999999706e+00 3.465684046173931565e+05
4.798199999999999577e+00 3.426348904078511987e+05
4.827600000000000335e+00 3.389929174429370323e+05
4.857099999999999973e+00 3.358961323303456884e+05
4.886499999999999844e+00 3.338353332411778974e+05
4.915899999999999714e+00 3.332095291787377791e+05
4.945400000000000240e+00 3.340260943157520378e+05
4.974800000000000111e+00 3.359815027108812355e+05
5.004299999999999748e+00 3.387455287212270778e+05
5.033699999999999619e+00 3.417272951385451597e+05
5.063100000000000378e+00 3.443664745899033733e+05
5.092600000000000016e+00 3.465349048470134730e+05
5.121999999999999886e+00 3.483774860314046382e+05
5.151399999999999757e+00 3.500247021577959531e+05
5.180900000000000283e+00 3.516672860030223383e+05
5.210300000000000153e+00 3.535775189991770312e+05
5.239700000000000024e+00 3.558847673450410366e+05
5.269199999999999662e+00 3.583800203771685483e+05
5.298600000000000421e+00 3.605783816629143548e+05
5.328100000000000058e+00 3.620119500609740498e+05
5.357499999999999929e+00 3.623756251899380004e+05
5.386899999999999800e+00 3.616980507081690594e+05
5.416400000000000325e+00 3.603259565194161260e+05
5.445800000000000196e+00 3.588285813670533826e+05
5.475200000000000067e+00 3.577937729490986676e+05
5.504699999999999704e+00 3.574770720840097638e+05
5.534099999999999575e+00 3.577096615548117552e+05
5.563600000000000101e+00 3.583182760264697718e+05
5.592999999999999972e+00 3.591818471549665555e+05
5.622399999999999842e+00 3.602603147416784777e+05
5.651900000000000368e+00 3.614324652528424049e+05
5.681300000000000239e+00 3.627222038542248774e+05
5.710700000000000109e+00 3.645704000692344853e+05
5.740199999999999747e+00 3.676690170359949698e+05
5.769599999999999618e+00 3.724868069834707421e+05
5.799000000000000377e+00 3.789873819278489682e+05
5.828500000000000014e+00 3.867101534170633531e+05
5.857899999999999885e+00 3.949344795853564283e+05
5.887400000000000411e+00 4.031379967322883313e+05
5.916800000000000281e+00 4.111342938512153341e+05
5.946200000000000152e+00 4.190693105822844664e+05
5.975699999999999790e+00 4.273303491470976733e+05
6.005099999999999660e+00 4.363186958758426481e+05
6.034500000000000419e+00 4.462521993357861065e+05
6.064000000000000057e+00 4.571151902560830931e+05
6.093399999999999928e+00 4.686648016730871168e+05
6.122899999999999565e+00 4.806979619228343363e+05
6.152300000000000324e+00 4.933486658794038231e+05
6.181700000000000195e+00 5.068922628538790741e+05
6.211199999999999832e+00 5.215169805323518231e+05
6.240599999999999703e+00 5.372574039454435697e+05
6.269999999999999574e+00 5.539855804249530192e+05
6.299500000000000099e+00 5.713612768519360106e+05
6.328899999999999970e+00 5.888784938218510943e+05
6.358299999999999841e+00 6.060889718967624940e+05
6.387800000000000367e+00 6.225638211960626068e+05
6.417200000000000237e+00 6.379469904824786354e+05
6.446699999999999875e+00 6.519928431844512234e+05
6.476099999999999746e+00 6.645195190547223901e+05
6.505499999999999616e+00 6.754962132560213795e+05
6.535000000000000142e+00 6.848975187780642882e+05
6.564400000000000013e+00 6.925463124705958180e+05
6.593799999999999883e+00 6.986609376952125458e+05
6.623300000000000409e+00 7.040925886374291731e+05
6.652700000000000280e+00 7.098902608316005208e+05
6.682199999999999918e+00 7.167753651688615791e+05
6.711599999999999788e+00 7.246339617735581705e+05
6.740999999999999659e+00 7.326559986954332562e+05
6.770500000000000185e+00 7.399200112840209622e+05
6.799900000000000055e+00 7.459364855057625100e+05
6.829299999999999926e+00 7.507361566373757087e+05
6.858799999999999564e+00 7.548044021557534579e+05
6.888200000000000323e+00 7.586890388760684291e+05
6.917600000000000193e+00 7.624641686888934346e+05
6.947099999999999831e+00 7.660877048648102209e+05
6.976499999999999702e+00 7.698939468945515109e+05
7.006000000000000227e+00 7.743824379675339442e+05
7.035400000000000098e+00 7.794960064835280646e+05
7.064799999999999969e+00 7.847757016678926302e+05
7.094299999999999606e+00 7.899630897971824743e+05
7.123700000000000365e+00 7.951271857310878113e+05
7.153100000000000236e+00 8.006471848987949779e+05
7.182599999999999874e+00 8.070195668189394055e+05
7.211999999999999744e+00 8.146416030234768987e+05
7.241500000000000270e+00 8.235919002435953589e+05
7.270900000000000141e+00 8.333584801412792876e+05
7.300300000000000011e+00 8.430556500751037383e+05
7.329799999999999649e+00 8.519202749436798040e+05
7.359200000000000408e+00 8.596877279700008221e+05
7.388600000000000279e+00 8.664598504331611330e+05
7.418099999999999916e+00 8.726455809836969711e+05
7.447499999999999787e+00 8.790285641083091032e+05
7.476899999999999658e+00 8.863586486246299464e+05
7.506400000000000183e+00 8.948207524093593238e+05
7.535800000000000054e+00 9.040756275223466801e+05
7.565299999999999692e+00 9.137830813185008010e+05
7.594699999999999562e+00 9.235014848673250526e+05
7.624100000000000321e+00 9.325309684017545078e+05
7.653599999999999959e+00 9.402919906329483492e+05
7.682999999999999829e+00 9.467752521845435258e+05
7.712399999999999700e+00 9.521199793350973632e+05
7.741900000000000226e+00 9.562660710272650467e+05
7.771300000000000097e+00 9.590908599830152234e+05
7.800699999999999967e+00 9.609055580186092993e+05
7.830199999999999605e+00 9.624035928474788088e+05
7.859600000000000364e+00 9.642474642702309648e+05
7.889100000000000001e+00 9.667997879721081117e+05
7.918499999999999872e+00 9.700254744940673700e+05
7.947899999999999743e+00 9.738333904404309578e+05
7.977400000000000269e+00 9.782237713250364177e+05
8.006800000000000139e+00 9.831371993567278842e+05
8.036199999999999122e+00 9.881465391404174734e+05
8.065699999999999648e+00 9.924106237942435546e+05
8.095100000000000406e+00 9.954382592170361895e+05
8.124599999999999156e+00 9.975189632778366795e+05
8.153999999999999915e+00 9.990177055590919917e+05
8.183400000000000674e+00 9.999585118287797086e+05
8.212899999999999423e+00 1.000527890011954936e+06
8.242300000000000182e+00 1.001108337081450620e+06
8.271699999999999164e+00 1.001876535945402575e+06
8.301199999999999690e+00 1.002595748038979596e+06
8.330600000000000449e+00 1.002901756824380835e+06
8.359999999999999432e+00 1.002643764278896269e+06
8.389499999999999957e+00 1.002133627909252420e+06
8.418900000000000716e+00 1.002251639891929226e+06
8.448399999999999466e+00 1.003962452494856552e+06
8.477800000000000225e+00 1.007241236696473905e+06
8.507199999999999207e+00 1.011145496080590412e+06
8.536699999999999733e+00 1.014553360812314437e+06
8.566100000000000492e+00 1.016758903649895336e+06
8.595499999999999474e+00 1.017665331207536627e+06
8.625000000000000000e+00 1.017752848219532752e+06
8.654400000000000759e+00 1.017799100597750046e+06
8.683899999999999508e+00 1.018428713546280633e+06
8.713300000000000267e+00 1.019584148718744633e+06
8.742699999999999250e+00 1.020773984266357962e+06
8.772199999999999775e+00 1.021592869339075871e+06
8.801600000000000534e+00 1.021901970213370631e+06
8.830999999999999517e+00 1.021799316210175166e+06
8.860500000000000043e+00 1.021442821498223930e+06
8.889900000000000801e+00 1.021006800343739102e+06
8.919299999999999784e+00 1.020913652997019351e+06
8.948800000000000310e+00 1.021639022619473166e+06
8.978199999999999292e+00 1.023145258043237729e+06
9.007699999999999818e+00 1.024979347062251298e+06
9.037100000000000577e+00 1.026636567202163977e+06
9.066499999999999559e+00 1.027858482264377177e+06
9.096000000000000085e+00 1.028520954438502900e+06
9.125400000000000844e+00 1.028727155986868544e+06
9.154799999999999827e+00 1.028591896718176780e+06
9.184300000000000352e+00 1.028155823960101232e+06
9.213699999999999335e+00 1.027271136603971710e+06
9.243199999999999861e+00 1.025596218189521460e+06
9.272600000000000620e+00 1.022465102390947635e+06
9.301999999999999602e+00 1.017656751989725395e+06
9.331500000000000128e+00 1.011700444782516803e+06
9.360900000000000887e+00 1.005298335335237556e+06
9.390299999999999869e+00 9.990510855384689057e+05
9.419800000000000395e+00 9.933642155111667234e+05
9.449199999999999378e+00 9.881790172054124996e+05
9.478600000000000136e+00 9.834444011793718673e+05
9.508100000000000662e+00 9.788279493933307240e+05
9.537499999999999645e+00 9.737917306108546909e+05
9.567000000000000171e+00 9.682580280841907952e+05
9.596399999999999153e+00 9.627107605942309601e+05
9.625799999999999912e+00 9.577578931220840896e+05
9.655300000000000438e+00 9.538057817624659510e+05
9.684699999999999420e+00 9.509301229738260154e+05
9.714100000000000179e+00 9.492303706798229832e+05
9.743600000000000705e+00 9.488851726817383897e+05
9.772999999999999687e+00 9.498935079109945800e+05
9.802500000000000213e+00 9.520837631540518487e+05
9.831899999999999196e+00 9.549967284796886379e+05
9.861299999999999955e+00 9.581008246137698879e+05
9.890800000000000480e+00 9.608620157938739285e+05
9.920199999999999463e+00 9.628666362080675317e+05
9.949600000000000222e+00 9.642146822927744361e+05
9.979100000000000747e+00 9.651784443299905397e+05
1.000849999999999973e+01 9.656959988784514135e+05
1.003790000000000049e+01 9.652532624347460223e+05
1.006739999999999924e+01 9.638042985909923445e+05
1.009680000000000000e+01 9.621585714721112745e+05
1.012630000000000052e+01 9.612520647863044869e+05
1.015569999999999951e+01 9.610885836292654276e+05
1.018510000000000026e+01 9.613502354525346309e+05
1.021460000000000079e+01 9.617493124194733100e+05
1.024399999999999977e+01 9.621683985961969011e+05
1.027340000000000053e+01 9.626196370823358884e+05
1.030289999999999928e+01 9.632115002333365846e+05
1.033230000000000004e+01 9.636887892632579897e+05
1.036180000000000057e+01 9.629831529202414677e+05
1.039119999999999955e+01 9.598954179449278163e+05
1.042060000000000031e+01 9.544878172137978254e+05
1.045010000000000083e+01 9.477563666899858508e+05
1.047949999999999982e+01 9.403402672431386309e+05
1.050890000000000057e+01 9.322858139920854010e+05
1.053839999999999932e+01 9.233388466917057522e+05
1.056780000000000008e+01 9.134187670832970180e+05
1.059720000000000084e+01 9.029697889516092837e+05
1.062669999999999959e+01 8.927265988683338510e+05
1.065610000000000035e+01 8.832984901080577401e+05
1.068560000000000088e+01 8.750529077854369534e+05
1.071499999999999986e+01 8.680543823072958039e+05
1.074440000000000062e+01 8.623920221078593750e+05
1.077389999999999937e+01 8.581010364868517499e+05
1.080330000000000013e+01 8.548361690575447865e+05
1.083270000000000088e+01 8.517274645135240862e+05
1.086219999999999963e+01 8.478909062009617919e+05
1.089160000000000039e+01 8.432979997976126615e+05
1.092099999999999937e+01 8.388201045438008150e+05
1.095049999999999990e+01 8.356079346928924788e+05
1.097990000000000066e+01 8.338036962957831565e+05
1.100939999999999941e+01 8.332688880910483422e+05
1.103880000000000017e+01 8.338628920475695049e+05
1.106819999999999915e+01 8.357802014449583367e+05
1.109769999999999968e+01 8.388041394451392116e+05
1.112710000000000043e+01 8.425149945709515596e+05
1.115649999999999942e+01 8.465302012315316824e+05
1.118599999999999994e+01 8.503044140753125539e+05
1.121540000000000070e+01 8.531577674611520488e+05
1.124489999999999945e+01 8.544412317158834776e+05
1.127430000000000021e+01 8.540788476282572374e+05
1.130369999999999919e+01 8.527927256947767455e+05
1.133319999999999972e+01 8.514660468105591135e+05
1.136260000000000048e+01 8.508827308561631944e+05
1.139199999999999946e+01 8.510965431972113438e+05
1.142149999999999999e+01 8.517325425975532271e+05
1.145090000000000074e+01 8.523650691673967522e+05
1.148029999999999973e+01 8.530575806174861500e+05
1.150980000000000025e+01 8.538786059716343880e+05
1.153919999999999924e+01 8.546665788851621328e+05
1.156869999999999976e+01 8.550222405571595300e+05
1.159810000000000052e+01 8.543533639055275125e+05
1.162749999999999950e+01 8.525267291685652453e+05
1.165700000000000003e+01 8.497324244653292699e+05
1.168640000000000079e+01 8.462615203813068802e+05
1.171579999999999977e+01 8.425482587074065814e+05
