# energy(eV) alpha
0.000000000000000000e+00 0.000000000000000000e+00
2.900000000000000147e-02 1.314920924489343390e+00
5.800000000000000294e-02 5.259253819006746156e+00
8.699999999999999400e-02 1.183167379386639695e+01
1.159000000000000030e-01 2.109526540972769837e+01
1.449000000000000010e-01 3.314124678521118028e+01
1.738999999999999990e-01 4.763929408644496988e+01
2.028999999999999970e-01 6.533462490632574315e+01
2.318999999999999950e-01 8.547109302188678726e+01
2.609000000000000208e-01 1.084799521891393681e+02
2.898999999999999910e-01 1.344144638039151687e+02
3.189000000000000168e-01 1.635572064496453208e+02
3.477999999999999980e-01 1.952179890105553852e+02
3.768000000000000238e-01 2.307798416385655855e+02
4.057999999999999940e-01 2.689742367442160003e+02
4.348000000000000198e-01 3.106571889352973130e+02
4.637999999999999901e-01 3.556069597823720301e+02
4.928000000000000158e-01 4.045702460845823225e+02
5.218000000000000416e-01 4.565945742064045021e+02
5.506999999999999673e-01 5.135303031488385841e+02
5.796999999999999931e-01 5.737761358971238224e+02
6.087000000000000188e-01 6.380848473765361177e+02
6.377000000000000446e-01 7.074529687568291365e+02
6.666999999999999593e-01 7.806791319170522456e+02
6.956999999999999851e-01 8.592640363685419516e+02
7.247000000000000108e-01 9.429005777682396001e+02
7.537000000000000366e-01 1.032260011586532755e+03
7.825999999999999623e-01 1.127395454707856970e+03
8.115999999999999881e-01 1.229337442702474618e+03
8.406000000000000139e-01 1.336430300202218405e+03
8.696000000000000396e-01 1.451770989341433960e+03
8.985999999999999543e-01 1.573821439178053652e+03
9.275999999999999801e-01 1.704035462741785750e+03
9.566000000000000059e-01 1.843348456420972070e+03
9.855000000000000426e-01 1.991875127889934220e+03
1.014499999999999957e+00 2.150292822020708627e+03
1.043500000000000094e+00 2.320870451245406002e+03
1.072500000000000009e+00 2.503299731879827505e+03
1.101499999999999924e+00 2.698689071267530380e+03
1.130500000000000060e+00 2.908221031207538090e+03
1.159499999999999975e+00 3.133898410580070049e+03
1.188499999999999890e+00 3.377836770086835713e+03
1.217400000000000038e+00 3.641968857822816517e+03
1.246399999999999952e+00 3.926660777703301846e+03
1.275400000000000089e+00 4.238159468820769689e+03
1.304400000000000004e+00 4.579069200018988340e+03
1.333399999999999919e+00 4.952005583079333519e+03
1.362400000000000055e+00 5.364169643405384704e+03
1.391399999999999970e+00 5.822180505004279439e+03
1.420299999999999896e+00 6.331524063879437563e+03
1.449300000000000033e+00 6.907684564960718490e+03
1.478299999999999947e+00 7.564468849553800283e+03
1.507300000000000084e+00 8.321576319691537719e+03
1.536299999999999999e+00 9.208324770485529370e+03
1.565299999999999914e+00 1.025328188241663338e+04
1.594300000000000050e+00 1.149229088582318400e+04
1.623199999999999976e+00 1.294128456276858560e+04
1.652199999999999891e+00 1.459693420008450630e+04
1.681200000000000028e+00 1.643215736405182906e+04
1.710199999999999942e+00 1.847594093803525902e+04
1.739200000000000079e+00 2.084794570122902223e+04
1.768199999999999994e+00 2.375164237203208540e+04
1.797199999999999909e+00 2.736711200024961363e+04
1.826200000000000045e+00 3.174701051474377164e+04
1.855099999999999971e+00 3.679304063008984667e+04
1.884100000000000108e+00 4.238916830401852349e+04
1.913100000000000023e+00 4.859425616301701666e+04
1.942099999999999937e+00 5.567869688704547298e+04
1.971100000000000074e+00 6.375995896138860553e+04
2.000100000000000211e+00 7.256651070914448064e+04
2.029100000000000126e+00 8.167993009570887079e+04
2.057999999999999829e+00 9.114209739580172754e+04
2.087000000000000188e+00 1.016240946512415103e+05
2.116000000000000103e+00 1.132921382463943883e+05
2.145000000000000018e+00 1.249182829245256871e+05
2.173999999999999932e+00 1.346827561825063895e+05
2.202999999999999847e+00 1.421775928009777563e+05
2.232000000000000206e+00 1.488482312373795139e+05
2.261000000000000121e+00 1.559659681289881992e+05
2.289899999999999824e+00 1.630538471478519205e+05
2.318900000000000183e+00 1.690930584509789187e+05
2.347900000000000098e+00 1.744397606145596656e+05
2.376900000000000013e+00 1.808786708286601352e+05
2.405899999999999928e+00 1.902979844711710175e+05
2.434899999999999842e+00 2.033300232431324839e+05
2.463900000000000201e+00 2.187589100610164751e+05
2.492799999999999905e+00 2.340037978312172345e+05
2.521799999999999820e+00 2.466664318159536924e+05
2.550800000000000178e+00 2.555683824584255344e+05
2.579800000000000093e+00 2.605844535710771743e+05
2.608800000000000008e+00 2.621767141145044588e+05
2.637799999999999923e+00 2.620764675137793238e+05
2.666799999999999837e+00 2.629944868429389899e+05
2.695800000000000196e+00 2.668063025498071802e+05
2.724699999999999900e+00 2.742974935212510172e+05
2.753699999999999815e+00 2.860835189821769018e+05
2.782700000000000173e+00 3.019124906466365792e+05
2.811700000000000088e+00 3.195979728246207233e+05
2.840700000000000003e+00 3.355144157365296851e+05
2.869699999999999918e+00 3.463523073575503076e+05
2.898699999999999832e+00 3.507464648193512694e+05
2.927599999999999980e+00 3.501047329105010722e+05
2.956599999999999895e+00 3.480852319932828541e+05
2.985599999999999810e+00 3.482081865843746928e+05
3.014600000000000168e+00 3.516466953287957585e+05
3.043600000000000083e+00 3.576709722120505176e+05
3.072599999999999998e+00 3.656271776684205979e+05
3.101599999999999913e+00 3.755164920513106044e+05
3.130599999999999827e+00 3.874601881423507002e+05
3.159499999999999975e+00 4.012193917129126494e+05
3.188499999999999890e+00 4.160457281618490233e+05
3.217499999999999805e+00 4.309914331067388412e+05
3.246500000000000163e+00 4.456475492313482682e+05
3.275500000000000078e+00 4.599042015983262099e+05
3.304499999999999993e+00 4.732137489804220968e+05
3.333499999999999908e+00 4.846020746119933901e+05
3.362400000000000055e+00 4.937174085367522785e+05
3.391399999999999970e+00 5.011853963376642205e+05
3.420399999999999885e+00 5.073141249510268681e+05
3.449399999999999800e+00 5.118670146326968097e+05
3.478400000000000158e+00 5.144852463039483991e+05
3.507400000000000073e+00 5.145696134003789630e+05
3.536399999999999988e+00 5.114752440285119810e+05
3.565399999999999903e+00 5.052812105540205957e+05
3.594300000000000050e+00 4.968718910180614330e+05
3.623299999999999965e+00 4.876449444422504166e+05
3.652299999999999880e+00 4.788184149527114350e+05
3.681299999999999795e+00 4.712985100634986884e+05
3.710300000000000153e+00 4.657388669894348131e+05
3.739300000000000068e+00 4.619852513581399107e+05
3.768299999999999983e+00 4.590766730211781687e+05
3.797200000000000131e+00 4.559366174272154458e+05
3.826200000000000045e+00 4.521471664554959862e+05
3.855199999999999960e+00 4.479617784108785563e+05
3.884199999999999875e+00 4.436416250644079410e+05
3.913199999999999790e+00 4.390520552390844678e+05
3.942200000000000149e+00 4.339596976380535634e+05
3.971200000000000063e+00 4.286073272336859955e+05
4.000099999999999767e+00 4.239510736103568925e+05
4.029099999999999682e+00 4.207971466941593098e+05
4.058099999999999596e+00 4.187603032884783461e+05
4.087100000000000399e+00 4.166736103120942134e+05
4.116100000000000314e+00 4.138135773258776753e+05
4.145100000000000229e+00 4.102961017173817381e+05
4.174100000000000144e+00 4.065458582423672779e+05
4.203100000000000058e+00 4.026189252050515497e+05
4.232000000000000206e+00 3.984109933552882867e+05
4.261000000000000121e+00 3.945407952811731957e+05
4.290000000000000036e+00 3.920518706951618078e+05
4.318999999999999950e+00 3.911735715468981653e+05
4.347999999999999865e+00 3.911239025414932403e+05
4.376999999999999780e+00 3.909413175293632667e+05
4.405999999999999694e+00 3.897695226948837517e+05
4.434899999999999842e+00 3.870793420627012383e+05
4.463899999999999757e+00 3.829896357932218234e+05
4.492899999999999672e+00 3.780001146695879870e+05
4.521899999999999586e+00 3.727025624482743442e+05
4.550900000000000389e+00 3.675422791374745429e+05
4.579900000000000304e+00 3.628128148942736443e+05
4.608900000000000219e+00 3.586608711475973832e+05
4.637900000000000134e+00 3.548006787116930936e+05
4.666800000000000281e+00 3.507204884422775940e+05
4.695800000000000196e+00 3.462524603896692279e+05
4.724800000000000111e+00 3.416941773649306851e+05
4.753800000000000026e+00 3.375694338485860499e+05
4.782799999999999940e+00 3.344061717797199381e+05
4.811799999999999855e+00 3.326304255365494173e+05
4.840799999999999770e+00 3.325288699788806261e+05
4.869699999999999918e+00 3.339890764632430510e+05
4.898699999999999832e+00 3.363324520262771985e+05
4.927699999999999747e+00 3.384268961269843858e+05
4.956699999999999662e+00 3.394580763831161894e+05
4.985699999999999577e+00 3.395328879908799427e+05
5.014700000000000379e+00 3.395408190090384451e+05
5.043700000000000294e+00 3.404959888428728445e+05
5.072700000000000209e+00 3.429175128290267312e+05
5.101600000000000357e+00 3.466891131952154683e+05
5.130600000000000271e+00 3.513444131427356042e+05
5.159600000000000186e+00 3.562637458969310974e+05
5.188600000000000101e+00 3.606164512341961381e+05
5.217600000000000016e+00 3.634661532210076111e+05
5.246599999999999930e+00 3.642757776561141945e+05
5.275599999999999845e+00 3.633326904815868475e+05
5.304499999999999993e+00 3.615062638390898355e+05
5.333499999999999908e+00 3.597331565195200965e+05
5.362499999999999822e+00 3.585246905222210917e+05
5.391499999999999737e+00 3.579720332751907408e+05
5.420499999999999652e+00 3.581135249847712694e+05
5.449499999999999567e+00 3.589679783297381946e+05
5.478500000000000369e+00 3.602173446661555208e+05
5.507500000000000284e+00 3.614637153456440428e+05
5.536400000000000432e+00 3.623931577571653179e+05
5.565400000000000347e+00 3.632075441886547487e+05
5.594400000000000261e+00 3.647323948453046614e+05
5.623400000000000176e+00 3.676619534770540195e+05
5.652400000000000091e+00 3.716637386069782078e+05
5.681400000000000006e+00 3.755702709070735727e+05
5.710399999999999920e+00 3.785812126359309768e+05
5.739300000000000068e+00 3.807242590305366321e+05
5.768299999999999983e+00 3.824920602622320293e+05
5.797299999999999898e+00 3.844838782997157541e+05
5.826299999999999812e+00 3.872484611574025475e+05
5.855299999999999727e+00 3.911206506662468310e+05
5.884299999999999642e+00 3.965209457324595423e+05
5.913299999999999557e+00 4.038534274288564338e+05
5.942300000000000360e+00 4.133640426454470726e+05
5.971199999999999619e+00 4.251105726598669426e+05
6.000200000000000422e+00 4.388063085480428417e+05
6.029200000000000337e+00 4.538862843335232465e+05
6.058200000000000252e+00 4.698516159622424748e+05
6.087200000000000166e+00 4.862823501774227479e+05
6.116200000000000081e+00 5.028056733759252820e+05
6.145199999999999996e+00 5.193638972328353557e+05
6.174100000000000144e+00 5.363610283098467626e+05
6.203100000000000058e+00 5.546123785652229562e+05
6.232099999999999973e+00 5.747228601477015764e+05
6.261099999999999888e+00 5.964426948454185622e+05
6.290099999999999802e+00 6.186726804602930788e+05
6.319099999999999717e+00 6.402944126683733193e+05
6.348099999999999632e+00 6.608769909285503672e+05
6.377100000000000435e+00 6.801305924120794516e+05
6.405999999999999694e+00 6.974936122417104198e+05
6.434999999999999609e+00 7.123963308388167061e+05
6.464000000000000412e+00 7.243027529137457022e+05
6.493000000000000327e+00 7.329057642695266986e+05
6.522000000000000242e+00 7.387598987763888435e+05
6.551000000000000156e+00 7.429422667010765290e+05
6.580000000000000071e+00 7.465020611842416693e+05
6.608900000000000219e+00 7.503476013642406324e+05
6.637900000000000134e+00 7.548793654136175755e+05
6.666900000000000048e+00 7.594526428153285524e+05
6.695899999999999963e+00 7.630515078430948779e+05
6.724899999999999878e+00 7.654320304446017835e+05
6.753899999999999793e+00 7.672636250097285956e+05
6.782899999999999707e+00 7.694689614076057915e+05
6.811799999999999855e+00 7.724536346093941247e+05
6.840799999999999770e+00 7.759951941561272833e+05
6.869799999999999685e+00 7.795274573288601823e+05
6.898799999999999599e+00 7.823992240349603817e+05
6.927800000000000402e+00 7.840661357173075667e+05
6.956800000000000317e+00 7.841323969788431423e+05
6.985800000000000232e+00 7.824319047713144682e+05
7.014800000000000146e+00 7.795259281009864062e+05
7.043700000000000294e+00 7.769661881271005841e+05
7.072700000000000209e+00 7.769348685025037266e+05
7.101700000000000124e+00 7.810566743208257249e+05
7.130700000000000038e+00 7.893108107166204136e+05
7.159699999999999953e+00 8.000815347599639790e+05
7.188699999999999868e+00 8.115305124105319846e+05
7.217699999999999783e+00 8.224667539853728376e+05
7.246599999999999930e+00 8.324253149078912102e+05
7.275599999999999845e+00 8.412733239299838897e+05
7.304599999999999760e+00 8.487888404943973292e+05
7.333599999999999675e+00 8.551400939544092398e+05
7.362599999999999589e+00 8.610103871558770770e+05
7.391600000000000392e+00 8.671323287795874057e+05
7.420600000000000307e+00 8.738171586119502317e+05
7.449600000000000222e+00 8.810844282386666164e+05
7.478500000000000369e+00 8.890397469482108718e+05
7.507500000000000284e+00 8.976132628335886402e+05
7.536500000000000199e+00 9.065223568654446863e+05
7.565500000000000114e+00 9.156770686119495658e+05
7.594500000000000028e+00 9.250378674114942551e+05
7.623499999999999943e+00 9.342713386483843205e+05
7.652499999999999858e+00 9.427702562998769572e+05
7.681400000000000006e+00 9.501730503825927153e+05
7.710399999999999920e+00 9.567243876835277770e+05
7.739399999999999835e+00 9.629112949618489947e+05
7.768399999999999750e+00 9.689496710801754380e+05
7.797399999999999665e+00 9.749147753434367478e+05
7.826399999999999579e+00 9.807123074294893304e+05
7.855400000000000382e+00 9.859276971499150386e+05
7.884400000000000297e+00 9.902219575365097262e+05
7.913299999999999557e+00 9.937690856169853359e+05
7.942300000000000360e+00 9.971641979927010834e+05
7.971300000000000274e+00 1.000785133842673269e+06
8.000299999999999301e+00 1.004684528291056049e+06
8.029299999999999216e+00 1.008541765194516513e+06
8.058299999999999130e+00 1.011890406993636978e+06
8.087300000000000821e+00 1.014418109238652629e+06
8.116199999999999193e+00 1.016095342948582256e+06
8.145200000000000884e+00 1.017097271703116130e+06
8.174200000000000799e+00 1.017525778882504324e+06
8.203200000000000713e+00 1.017491642229136429e+06
8.232200000000000628e+00 1.017290311682252795e+06
8.261200000000000543e+00 1.017117254309428856e+06
8.290200000000000458e+00 1.017086476855591405e+06
8.319200000000000372e+00 1.017277145105155651e+06
8.348100000000000520e+00 1.017688307996030780e+06
8.377100000000000435e+00 1.018128856750833336e+06
8.406100000000000350e+00 1.018519849162242142e+06
8.435100000000000264e+00 1.019048980843170662e+06
8.464100000000000179e+00 1.019895099875566550e+06
8.493100000000000094e+00 1.021122089087586850e+06
8.522100000000000009e+00 1.022676654553827480e+06
8.551000000000000156e+00 1.024505548337338259e+06
8.580000000000000071e+00 1.026706341697076336e+06
8.608999999999999986e+00 1.029238481979312724e+06
8.637999999999999901e+00 1.031668205983367981e+06
8.666999999999999815e+00 1.033401888918364537e+06
8.695999999999999730e+00 1.034085897296871291e+06
8.724999999999999645e+00 1.033784287071986357e+06
8.753999999999999559e+00 1.032873967456391198e+06
8.782899999999999707e+00 1.031879184428083128e+06
8.811899999999999622e+00 1.031244670873745577e+06
8.840899999999999537e+00 1.031396818497672328e+06
8.869899999999999451e+00 1.032492393117852043e+06
8.898899999999999366e+00 1.034394874548867927e+06
8.927899999999999281e+00 1.036651155199879082e+06
8.956899999999999196e+00 1.038476002688266803e+06
8.985799999999999343e+00 1.039239937920370488e+06
9.014799999999999258e+00 1.038867608513004030e+06
9.043799999999999173e+00 1.037717842103975127e+06
9.072800000000000864e+00 1.036296879844800918e+06
9.101800000000000779e+00 1.034967493673620280e+06
9.130800000000000693e+00 1.033653477323567495e+06
9.159800000000000608e+00 1.032053584631077945e+06
9.188700000000000756e+00 1.029789750165762496e+06
9.217700000000000671e+00 1.026700345988566871e+06
9.246700000000000585e+00 1.022774064021847444e+06
9.275700000000000500e+00 1.018001095393424737e+06
9.304700000000000415e+00 1.012350650411679409e+06
9.333700000000000330e+00 1.005980458776217070e+06
9.362700000000000244e+00 9.993539778431688901e+05
9.391700000000000159e+00 9.931328715237120632e+05
9.420600000000000307e+00 9.877701724991366500e+05
9.449600000000000222e+00 9.832835243604133138e+05
9.478600000000000136e+00 9.791581807430508779e+05
9.507600000000000051e+00 9.746854844026013743e+05
9.536599999999999966e+00 9.693348949939443264e+05
9.565599999999999881e+00 9.629280814699399052e+05
9.594599999999999795e+00 9.562665551657129545e+05
9.623499999999999943e+00 9.507461785425579874e+05
9.652499999999999858e+00 9.476563728016479872e+05
9.681499999999999773e+00 9.472624128024611855e+05
9.710499999999999687e+00 9.489524039495802717e+05
9.739499999999999602e+00 9.520166475542838452e+05
9.768499999999999517e+00 9.558889881448701490e+05
9.797499999999999432e+00 9.597758628598520299e+05
9.826499999999999346e+00 9.627613487759920536e+05
9.855399999999999494e+00 9.646414175102970330e+05
9.884399999999999409e+00 9.664236509704972850e+05
9.913399999999999324e+00 9.690606866600828944e+05
9.942399999999999238e+00 9.723937141667410033e+05
9.971399999999999153e+00 9.751897988247306785e+05
1.000040000000000084e+01 9.761305938041125191e+05
1.002940000000000076e+01 9.747984727888032794e+05
1.005829999999999913e+01 9.722437215525482316e+05
1.008730000000000082e+01 9.702714016675435705e+05
1.011630000000000074e+01 9.699020878849036526e+05
1.014530000000000065e+01 9.710287545969571220e+05
1.017430000000000057e+01 9.730092280626450665e+05
1.020330000000000048e+01 9.751014952572012553e+05
1.023230000000000040e+01 9.772117936991687166e+05
1.026130000000000031e+01 9.800384629061234882e+05
1.029020000000000046e+01 9.836045099879705813e+05
1.031920000000000037e+01 9.866139352083407575e+05
1.034820000000000029e+01 9.875177184274090687e+05
1.037720000000000020e+01 9.854474569787337678e+05
1.040620000000000012e+01 9.802563767207989004e+05
1.043520000000000003e+01 9.722811956228807103e+05
1.046419999999999995e+01 9.619509278206911404e+05
1.049310000000000009e+01 9.502148477690502768e+05
1.052210000000000001e+01 9.383784134760699235e+05
1.055109999999999992e+01 9.272995035677283304e+05
1.058009999999999984e+01 9.173075586319008144e+05
1.060909999999999975e+01 9.085070441604157677e+05
1.063809999999999967e+01 9.012267001472607953e+05
1.066709999999999958e+01 8.957681225790140452e+05
1.069609999999999950e+01 8.919440292961319210e+05
1.072499999999999964e+01 8.890441456155665219e+05
1.075399999999999956e+01 8.860274092003816040e+05
1.078299999999999947e+01 8.820448236453646095e+05
1.081199999999999939e+01 8.765692275886550779e+05
1.084099999999999930e+01 8.698494535097328480e+05
1.086999999999999922e+01 8.629481340453341836e+05
1.089899999999999913e+01 8.570110228897539200e+05
1.092789999999999928e+01 8.523831988751192112e+05
1.095689999999999920e+01 8.483434281457341276e+05
1.098590000000000089e+01 8.441852075047948165e+05
1.101490000000000080e+01 8.398458574689136585e+05
1.104390000000000072e+01 8.354557064818281215e+05
1.107290000000000063e+01 8.308935264326912584e+05
1.110190000000000055e+01 8.263161669442586135e+05
1.113090000000000046e+01 8.219524326609498821e+05
1.115980000000000061e+01 8.175394039899801137e+05
1.118880000000000052e+01 8.128291991763423430e+05
1.121780000000000044e+01 8.081964192233645590e+05
1.124680000000000035e+01 8.046853086124125402e+05
1.127580000000000027e+01 8.030694957886300981e+05
1.130480000000000018e+01 8.034413711845743237e+05
1.133380000000000010e+01 8.052195884832512820e+05
1.136270000000000024e+01 8.075638842300662072e+05
1.139170000000000016e+01 8.099139193825656548e+05
1.142070000000000007e+01 8.120702847436403390e+05
1.144969999999999999e+01 8.140232338021785254e+05
1.147869999999999990e+01 8.157873583456861088e+05
1.150769999999999982e+01 8.175462110945616150e+05
1.153669999999999973e+01 8.192900114810055820e+05
