# energy(eV) alpha
0.000000000000000000e+00 0.000000000000000000e+00
3.160000000000000309e-02 8.654962203664612330e-01
6.310000000000000331e-02 3.456310474938578903e+00
9.470000000000000639e-02 7.779980861907888290e+00
1.262000000000000066e-01 1.382183613758829566e+01
1.577999999999999958e-01 2.159953569877255575e+01
1.892999999999999960e-01 3.123891401406386947e+01
2.209000000000000130e-01 4.266629913701736143e+01
2.524000000000000132e-01 5.584256146272123544e+01
2.839999999999999747e-01 7.080635836269149763e+01
3.155999999999999917e-01 8.778856639170599863e+01
3.471000000000000196e-01 1.068291353282983636e+02
3.786999999999999811e-01 1.277540087116025518e+02
4.102000000000000091e-01 1.508227627720259250e+02
4.418000000000000260e-01 1.754653963533388605e+02
4.732999999999999985e-01 2.026627053683010331e+02
5.049000000000000155e-01 2.322360323031346638e+02
5.363999999999999879e-01 2.641628258782486682e+02
5.679999999999999494e-01 2.981510858184058179e+02
5.996000000000000218e-01 3.351021269640884839e+02
6.310999999999999943e-01 3.745924607325437705e+02
6.626999999999999558e-01 4.167976311254183202e+02
6.942000000000000393e-01 4.627690163433699695e+02
7.258000000000000007e-01 5.105235530047675070e+02
7.572999999999999732e-01 5.628543477912613753e+02
7.889000000000000457e-01 6.182965627922193335e+02
8.204000000000000181e-01 6.780575677749988017e+02
8.519999999999999796e-01 7.418197393425757582e+02
8.836000000000000520e-01 8.103227359647290768e+02
9.151000000000000245e-01 8.851166386734721527e+02
9.466999999999999860e-01 9.659558267209508813e+02
9.781999999999999584e-01 1.052906360279632281e+03
1.009800000000000031e+00 1.148810956482765050e+03
1.041299999999999892e+00 1.253888100540256119e+03
1.072899999999999965e+00 1.372176166147628237e+03
1.104400000000000048e+00 1.505875597705721248e+03
1.135999999999999899e+00 1.660513857607306363e+03
1.167599999999999971e+00 1.844407540858823040e+03
1.199100000000000055e+00 2.065646443392427045e+03
1.230699999999999905e+00 2.337260982455526573e+03
1.262199999999999989e+00 2.667805075670171846e+03
1.293800000000000061e+00 3.057151813438609679e+03
1.325299999999999923e+00 3.493900586870361167e+03
1.356899999999999995e+00 3.945538212662647766e+03
1.388400000000000079e+00 4.359050066371010871e+03
1.419999999999999929e+00 4.705865848032042777e+03
1.451600000000000001e+00 4.994644038018451283e+03
1.483100000000000085e+00 5.219570542682533414e+03
1.514699999999999935e+00 5.350976388141687494e+03
1.546200000000000019e+00 5.415671725379225791e+03
1.577800000000000091e+00 5.478792543600268800e+03
1.609299999999999953e+00 5.612045961853166773e+03
1.640900000000000025e+00 5.837893577070285573e+03
1.672400000000000109e+00 6.162773274930803382e+03
1.703999999999999959e+00 6.591864716130109628e+03
1.735600000000000032e+00 7.130642378512583491e+03
1.767099999999999893e+00 7.783261700397053573e+03
1.798699999999999966e+00 8.532715476751080132e+03
1.830200000000000049e+00 9.308856191174902051e+03
1.861799999999999899e+00 1.003503502690978348e+04
1.893299999999999983e+00 1.069751924917451288e+04
1.924900000000000055e+00 1.137197007595844661e+04
1.956399999999999917e+00 1.213996059980275459e+04
1.987999999999999989e+00 1.306838906346789554e+04
2.019600000000000062e+00 1.419404787612051950e+04
2.051099999999999923e+00 1.555760866377794810e+04
2.082699999999999996e+00 1.717764302413267069e+04
2.114199999999999857e+00 1.908719542549292237e+04
2.145799999999999930e+00 2.139927587199760819e+04
2.177299999999999791e+00 2.427533484806191336e+04
2.208899999999999864e+00 2.788385763607174886e+04
2.240400000000000169e+00 3.233171343216653986e+04
2.271999999999999797e+00 3.763092525554134045e+04
2.303599999999999870e+00 4.349540259108033206e+04
2.335100000000000176e+00 4.920207222562463721e+04
2.366699999999999804e+00 5.432479486742011795e+04
2.398200000000000109e+00 5.939569720875596977e+04
2.429800000000000182e+00 6.543831952678764355e+04
2.461300000000000043e+00 7.328550763323697902e+04
2.492900000000000116e+00 8.259891263642082049e+04
2.524500000000000188e+00 9.121666887460158614e+04
2.556000000000000050e+00 9.681695055934241100e+04
2.587600000000000122e+00 9.938257553381806065e+04
2.619099999999999984e+00 1.010460661506897886e+05
2.650700000000000056e+00 1.041429614552966086e+05
2.682199999999999918e+00 1.101629097658391402e+05
2.713799999999999990e+00 1.193745021695073374e+05
2.745299999999999851e+00 1.305246776709660480e+05
2.776899999999999924e+00 1.414455713405240967e+05
2.808499999999999996e+00 1.501637948659188114e+05
2.839999999999999858e+00 1.556050936395676108e+05
2.871599999999999930e+00 1.587300913884667389e+05
2.903099999999999792e+00 1.620634089455653448e+05
2.934699999999999864e+00 1.673786755128838413e+05
2.966200000000000170e+00 1.749707084206813597e+05
2.997799999999999798e+00 1.842479798787098844e+05
3.029300000000000104e+00 1.941350518483357737e+05
3.060900000000000176e+00 2.041212743582761323e+05
3.092499999999999805e+00 2.143376495038771827e+05
3.124000000000000110e+00 2.244343802634863241e+05
3.155600000000000183e+00 2.333209382611343462e+05
3.187100000000000044e+00 2.406420850753308041e+05
3.218700000000000117e+00 2.474138364849816135e+05
3.250199999999999978e+00 2.546018425629385165e+05
3.281800000000000050e+00 2.627710134787176503e+05
3.313299999999999912e+00 2.728774401896901545e+05
3.344899999999999984e+00 2.852227853325097822e+05
3.376500000000000057e+00 2.981700493436154211e+05
3.407999999999999918e+00 3.098831530612787465e+05
3.439599999999999991e+00 3.198814221679143375e+05
3.471099999999999852e+00 3.286630983215770102e+05
3.502699999999999925e+00 3.368785632221691194e+05
3.534199999999999786e+00 3.442779027869044803e+05
3.565799999999999859e+00 3.503711643995619961e+05
3.597300000000000164e+00 3.548219982173938188e+05
3.628899999999999793e+00 3.577843803414055146e+05
3.660499999999999865e+00 3.603448815378161962e+05
3.692000000000000171e+00 3.635544883482659352e+05
3.723599999999999799e+00 3.682267905557167251e+05
3.755100000000000104e+00 3.750765393917239853e+05
3.786700000000000177e+00 3.844422365279719234e+05
3.818200000000000038e+00 3.959291593556185835e+05
3.849800000000000111e+00 4.081676333402221790e+05
3.881299999999999972e+00 4.194966274833059288e+05
3.912900000000000045e+00 4.290057491090378026e+05
3.944500000000000117e+00 4.365644976362275775e+05
3.975999999999999979e+00 4.430157611071661813e+05
4.007600000000000051e+00 4.498816058504368411e+05
4.039100000000000357e+00 4.581423686798874987e+05
4.070700000000000429e+00 4.674953587489991332e+05
4.102199999999999847e+00 4.767125451076839236e+05
4.133799999999999919e+00 4.844696683759817388e+05
4.165300000000000225e+00 4.895321854924910585e+05
4.196900000000000297e+00 4.908899618005214143e+05
4.228500000000000369e+00 4.879097042310314137e+05
4.259999999999999787e+00 4.809727569078609231e+05
4.291599999999999859e+00 4.719993533889575046e+05
4.323100000000000165e+00 4.633186268594675348e+05
4.354700000000000237e+00 4.562987147286878317e+05
4.386199999999999655e+00 4.512056180427179206e+05
4.417799999999999727e+00 4.477584447869689902e+05
4.449300000000000033e+00 4.453885724155714852e+05
4.480900000000000105e+00 4.434777229218509165e+05
4.512500000000000178e+00 4.414597185010698158e+05
4.543999999999999595e+00 4.392430602384433150e+05
4.575599999999999667e+00 4.373420055369316251e+05
4.607099999999999973e+00 4.363686753602006356e+05
4.638700000000000045e+00 4.367013697493007057e+05
4.670200000000000351e+00 4.382098679428126197e+05
4.701800000000000423e+00 4.400676043536883662e+05
4.733299999999999841e+00 4.412567675052497070e+05
4.764899999999999913e+00 4.413591722324694274e+05
4.796499999999999986e+00 4.404779899068687810e+05
4.828000000000000291e+00 4.390354849661242915e+05
4.859600000000000364e+00 4.376502709743218147e+05
4.891099999999999781e+00 4.369935695514053223e+05
4.922699999999999854e+00 4.371948473309908295e+05
4.954200000000000159e+00 4.374669600484479452e+05
4.985800000000000232e+00 4.367774350022769067e+05
5.017299999999999649e+00 4.342632001344106393e+05
5.048899999999999721e+00 4.296795851264683297e+05
5.080499999999999794e+00 4.234947227941781166e+05
5.112000000000000099e+00 4.166028654415298952e+05
5.143600000000000172e+00 4.099975368771215435e+05
5.175099999999999589e+00 4.044129739517844282e+05
5.206699999999999662e+00 4.002870356297105318e+05
5.238199999999999967e+00 3.973240201156241237e+05
5.269800000000000040e+00 3.948876175807996187e+05
5.301300000000000345e+00 3.924740092054869165e+05
5.332900000000000418e+00 3.898507296732746763e+05
5.364499999999999602e+00 3.869201951589104137e+05
5.395999999999999908e+00 3.834835544809306739e+05
5.427599999999999980e+00 3.791742818091778317e+05
5.459100000000000286e+00 3.738039173552394495e+05
5.490700000000000358e+00 3.676721766755699064e+05
5.522199999999999775e+00 3.613328421622645110e+05
5.553799999999999848e+00 3.552689632292895694e+05
5.585300000000000153e+00 3.499738836446367204e+05
5.616900000000000226e+00 3.458979297306467779e+05
5.648500000000000298e+00 3.430877093336459948e+05
5.679999999999999716e+00 3.411986726274736575e+05
5.711599999999999788e+00 3.397580141917480505e+05
5.743100000000000094e+00 3.384805717486965004e+05
5.774700000000000166e+00 3.376780707004677388e+05
5.806199999999999584e+00 3.377341355832627742e+05
5.837799999999999656e+00 3.387407597941841814e+05
5.869299999999999962e+00 3.403447969506556401e+05
5.900900000000000034e+00 3.421808767160538118e+05
5.932500000000000107e+00 3.440781279629649944e+05
5.964000000000000412e+00 3.460118497558339150e+05
5.995599999999999596e+00 3.476999042747364147e+05
6.027099999999999902e+00 3.486194392667944194e+05
6.058699999999999974e+00 3.485231750698813703e+05
6.090200000000000280e+00 3.478110184225346893e+05
6.121800000000000352e+00 3.471563612020885921e+05
6.153299999999999770e+00 3.471606726769984234e+05
6.184899999999999842e+00 3.481151896831014892e+05
6.216499999999999915e+00 3.496990101799246040e+05
6.248000000000000220e+00 3.511896247781922575e+05
6.279600000000000293e+00 3.521615859948917641e+05
6.311099999999999710e+00 3.528289228745909058e+05
6.342699999999999783e+00 3.537978565400238731e+05
6.374200000000000088e+00 3.552134380036206567e+05
6.405800000000000161e+00 3.565654164476840524e+05
6.437299999999999578e+00 3.576134074034933583e+05
6.468899999999999650e+00 3.585312668520191801e+05
6.500499999999999723e+00 3.593193296315715997e+05
6.532000000000000028e+00 3.597252502626944915e+05
6.563600000000000101e+00 3.596870099474749877e+05
6.595100000000000406e+00 3.593882355362829985e+05
6.626699999999999591e+00 3.588822004720000550e+05
6.658199999999999896e+00 3.582609340874553309e+05
6.689799999999999969e+00 3.582046843317662715e+05
6.721300000000000274e+00 3.593426210668853018e+05
6.752900000000000347e+00 3.616790417411439121e+05
6.784500000000000419e+00 3.651142613028675551e+05
6.815999999999999837e+00 3.698727936894706218e+05
6.847599999999999909e+00 3.758717212588790571e+05
6.879100000000000215e+00 3.827103921996436547e+05
6.910700000000000287e+00 3.900389893839521101e+05
6.942199999999999704e+00 3.976545138768182369e+05
6.973799999999999777e+00 4.054117788073457195e+05
7.005300000000000082e+00 4.131605662269050954e+05
7.036900000000000155e+00 4.208167568355685798e+05
7.068500000000000227e+00 4.284221645050991792e+05
7.099999999999999645e+00 4.362483042368468014e+05
7.131599999999999717e+00 4.445961848554230528e+05
7.163100000000000023e+00 4.533304197885461617e+05
7.194700000000000095e+00 4.621506400188761181e+05
7.226200000000000401e+00 4.712502486310716486e+05
7.257799999999999585e+00 4.814287849973316188e+05
7.289399999999999658e+00 4.931461644884084817e+05
7.320899999999999963e+00 5.064316251040244824e+05
7.352500000000000036e+00 5.211511558206669288e+05
7.384000000000000341e+00 5.367909912460297346e+05
7.415600000000000414e+00 5.525727744713784195e+05
7.447099999999999831e+00 5.677917142486487282e+05
7.478699999999999903e+00 5.823694019175170688e+05
7.510200000000000209e+00 5.964246436067646137e+05
7.541800000000000281e+00 6.095589133448435459e+05
7.573400000000000354e+00 6.209801748954799259e+05
7.604899999999999771e+00 6.302875622631729348e+05
7.636499999999999844e+00 6.377797914598872885e+05
7.668000000000000149e+00 6.441569796155233635e+05
7.699600000000000222e+00 6.501313739856450120e+05
7.731099999999999639e+00 6.563074774350447115e+05
7.762699999999999712e+00 6.628786367245088331e+05
7.794200000000000017e+00 6.697459524900499964e+05
7.825800000000000090e+00 6.767367876383278053e+05
7.857400000000000162e+00 6.832077679951195605e+05
7.888899999999999579e+00 6.883596848464825889e+05
7.920499999999999652e+00 6.918781870576234069e+05
7.951999999999999957e+00 6.939052901594770374e+05
7.983600000000000030e+00 6.949114431033191504e+05
8.015100000000000335e+00 6.954595752473189496e+05
8.046699999999999520e+00 6.964233046361641027e+05
8.078200000000000713e+00 6.986849378120347392e+05
8.109799999999999898e+00 7.024981418578943703e+05
8.141400000000000858e+00 7.074792829289439833e+05
8.172900000000000276e+00 7.129335671108909883e+05
8.204499999999999460e+00 7.183053470470431494e+05
8.236000000000000654e+00 7.234362676836642204e+05
8.267599999999999838e+00 7.287879136221923400e+05
8.299099999999999255e+00 7.348685884704251075e+05
8.330700000000000216e+00 7.417331185146312928e+05
8.362199999999999633e+00 7.488183616818370065e+05
8.393800000000000594e+00 7.553014268336348468e+05
8.425399999999999778e+00 7.606108405930013396e+05
8.456899999999999196e+00 7.644045545899203280e+05
8.488500000000000156e+00 7.668516352336105192e+05
8.519999999999999574e+00 7.685046134679981042e+05
8.551600000000000534e+00 7.702577584301978350e+05
8.583099999999999952e+00 7.729317706444163341e+05
8.614699999999999136e+00 7.768374653567442438e+05
8.646200000000000330e+00 7.818004962043180130e+05
8.677799999999999514e+00 7.875932918764847564e+05
8.709400000000000475e+00 7.942803967532869428e+05
8.740899999999999892e+00 8.020505475376811810e+05
8.772500000000000853e+00 8.107982525147158885e+05
8.804000000000000270e+00 8.199008217589962296e+05
8.835599999999999454e+00 8.287955802474201191e+05
8.867100000000000648e+00 8.371697388490719022e+05
8.898699999999999832e+00 8.447174235354766715e+05
8.930199999999999250e+00 8.511207518484084867e+05
8.961800000000000210e+00 8.562355427411500132e+05
8.993399999999999395e+00 8.600779389879693044e+05
9.024900000000000588e+00 8.628773647147238953e+05
9.056499999999999773e+00 8.650446322142349090e+05
9.087999999999999190e+00 8.670066305259467335e+05
9.119600000000000151e+00 8.691515508807185106e+05
9.151099999999999568e+00 8.715270638383096084e+05
9.182700000000000529e+00 8.740659236480481923e+05
9.214199999999999946e+00 8.766320713716085302e+05
9.245799999999999130e+00 8.790979745105603943e+05
9.277400000000000091e+00 8.812741953714076662e+05
9.308899999999999508e+00 8.831895399273931980e+05
9.340500000000000469e+00 8.849453954603006132e+05
9.371999999999999886e+00 8.866334220555374632e+05
9.403600000000000847e+00 8.882496736377167981e+05
9.435100000000000264e+00 8.896101261849441798e+05
9.466699999999999449e+00 8.906121333418475697e+05
9.498200000000000642e+00 8.912430080944297370e+05
9.529799999999999827e+00 8.917996270714831771e+05
9.561400000000000787e+00 8.926282727637032513e+05
9.592900000000000205e+00 8.941747992153650848e+05
9.624499999999999389e+00 8.969624715562716592e+05
9.656000000000000583e+00 9.009828017637385055e+05
9.687599999999999767e+00 9.056333392315488309e+05
9.719099999999999184e+00 9.104644431594569469e+05
9.750700000000000145e+00 9.156438686773834052e+05
9.782199999999999562e+00 9.211678615222655935e+05
9.813800000000000523e+00 9.266248587940892903e+05
9.845399999999999707e+00 9.316946945473869564e+05
9.876899999999999125e+00 9.366723512566279387e+05
9.908500000000000085e+00 9.419035127695854753e+05
9.939999999999999503e+00 9.471599600378187606e+05
9.971600000000000463e+00 9.521372139630431775e+05
1.000309999999999988e+01 9.570572908697788371e+05
1.003470000000000084e+01 9.626924493733932031e+05
1.006620000000000026e+01 9.694605937980760355e+05
1.009779999999999944e+01 9.767842730392339872e+05
1.012940000000000040e+01 9.835310725713698193e+05
1.016089999999999982e+01 9.889310068042140920e+05
1.019250000000000078e+01 9.932928767975108931e+05
1.022400000000000020e+01 9.981452484336998314e+05
1.025559999999999938e+01 1.005824699950063601e+06
1.028710000000000058e+01 1.017228806001176243e+06
1.031869999999999976e+01 1.030839601437312202e+06
1.035019999999999918e+01 1.043784167342019267e+06
1.038180000000000014e+01 1.053449678374995943e+06
1.041339999999999932e+01 1.058861237246050732e+06
1.044490000000000052e+01 1.061302288557130611e+06
1.047649999999999970e+01 1.063096076824779622e+06
1.050799999999999912e+01 1.065729794746516272e+06
1.053960000000000008e+01 1.069724221252777614e+06
1.057109999999999950e+01 1.074627863699935842e+06
1.060270000000000046e+01 1.079404734826521249e+06
1.063419999999999987e+01 1.082999250577708706e+06
1.066580000000000084e+01 1.084889143439886859e+06
1.069740000000000002e+01 1.084805247783576604e+06
1.072889999999999944e+01 1.083201808224569075e+06
1.076050000000000040e+01 1.080745541241351282e+06
1.079199999999999982e+01 1.077838928621482570e+06
1.082360000000000078e+01 1.074799070442559198e+06
1.085510000000000019e+01 1.071300586956073297e+06
1.088669999999999938e+01 1.066930319029630162e+06
1.091820000000000057e+01 1.061895648283865070e+06
1.094979999999999976e+01 1.056312815315387677e+06
1.098140000000000072e+01 1.050136057273098035e+06
1.101290000000000013e+01 1.043836902479022741e+06
1.104449999999999932e+01 1.038345681912067579e+06
1.107600000000000051e+01 1.034180244315571501e+06
1.110759999999999970e+01 1.031411231045639026e+06
1.113909999999999911e+01 1.029812359073426458e+06
1.117070000000000007e+01 1.029088059827395715e+06
1.120219999999999949e+01 1.028919842403458082e+06
1.123380000000000045e+01 1.028968318974650232e+06
1.126539999999999964e+01 1.028963284357414232e+06
1.129690000000000083e+01 1.028704312193764839e+06
1.132850000000000001e+01 1.027711055234010564e+06
1.135999999999999943e+01 1.025257142575441860e+06
1.139160000000000039e+01 1.021056491935841390e+06
1.142309999999999981e+01 1.015156019115983858e+06
1.145470000000000077e+01 1.008093133392749471e+06
1.148620000000000019e+01 1.000761083171333419e+06
1.151779999999999937e+01 9.943333945346851833e+05
1.154940000000000033e+01 9.894802380659461487e+05
1.158089999999999975e+01 9.857686639229084831e+05
1.161250000000000071e+01 9.819364440215325449e+05
1.164400000000000013e+01 9.771272594231260009e+05
1.167559999999999931e+01 9.718944195578520885e+05
1.170710000000000051e+01 9.673272151372337248e+05
1.173869999999999969e+01 9.638317599520464428e+05
1.177030000000000065e+01 9.616503271985265892e+05
1.180180000000000007e+01 9.613657981949939858e+05
1.183339999999999925e+01 9.635019017797118286e+05
1.186490000000000045e+01 9.675556106351291528e+05
1.189649999999999963e+01 9.722510325930360705e+05
1.192800000000000082e+01 9.763730402651765617e+05
1.195960000000000001e+01 9.798711504514192929e+05
1.199109999999999943e+01 9.830783042308888398e+05
1.202270000000000039e+01 9.861933832543002209e+05
1.205429999999999957e+01 9.888809301299237413e+05
1.208580000000000076e+01 9.904666425891879480e+05
1.211739999999999995e+01 9.908610182425422827e+05
1.214889999999999937e+01 9.904893852931244764e+05
1.218050000000000033e+01 9.899185027889340417e+05
1.221199999999999974e+01 9.897653447164292447e+05
1.224360000000000070e+01 9.905598107650454622e+05
1.227510000000000012e+01 9.922488985966066830e+05
1.230669999999999931e+01 9.945822288339356892e+05
1.233830000000000027e+01 9.977208157643181039e+05
1.236979999999999968e+01 1.001610652250651969e+06
1.240140000000000065e+01 1.005855458865139866e+06
1.243290000000000006e+01 1.009632458339392091e+06
1.246449999999999925e+01 1.012015472823639517e+06
1.249600000000000044e+01 1.012817490975323133e+06
1.252759999999999962e+01 1.013192737832238548e+06
1.255910000000000082e+01 1.015005197252532584e+06
