# energy(eV) alpha
0.000000000000000000e+00 0.000000000000000000e+00
3.160000000000000309e-02 8.149523331778629753e-01
6.310000000000000331e-02 3.305329714704980049e+00
9.470000000000000639e-02 7.402003643164829505e+00
1.262999999999999956e-01 1.322868338028129820e+01
1.577999999999999958e-01 2.059275852918522531e+01
1.894000000000000128e-01 2.989760256614787082e+01
2.210000000000000020e-01 4.057129154395513382e+01
2.525000000000000022e-01 5.325079575071547566e+01
2.841000000000000192e-01 6.766800533956717345e+01
3.156999999999999806e-01 8.380044896675656219e+01
3.472000000000000086e-01 1.016162847689284945e+02
3.788000000000000256e-01 1.211649032063408242e+02
4.103999999999999870e-01 1.430763660900668981e+02
4.419000000000000150e-01 1.663924566505779410e+02
4.734999999999999765e-01 1.918660039726968591e+02
5.050999999999999934e-01 2.195300146065573870e+02
5.365999999999999659e-01 2.489762051238077163e+02
5.682000000000000384e-01 2.811990026202606714e+02
5.997999999999999998e-01 3.153315432442189490e+02
6.312999999999999723e-01 3.513160735550110871e+02
6.629000000000000448e-01 3.908328063390458169e+02
6.945000000000000062e-01 4.318283943772386806e+02
7.259999999999999787e-01 4.753105275389019084e+02
7.576000000000000512e-01 5.214618101086875868e+02
7.892000000000000126e-01 5.709141954064684796e+02
8.206999999999999851e-01 6.224204409230212605e+02
8.522999999999999465e-01 6.788168284025003913e+02
8.839000000000000190e-01 7.374968410319004306e+02
9.153999999999999915e-01 7.983633007205147578e+02
9.469999999999999529e-01 8.638138421046608073e+02
9.786000000000000254e-01 9.331786824905091180e+02
1.010099999999999998e+00 1.006486152202927315e+03
1.041700000000000070e+00 1.083218877844437884e+03
1.073299999999999921e+00 1.165023127938371545e+03
1.104800000000000004e+00 1.251957933585411865e+03
1.136400000000000077e+00 1.343529327640545034e+03
1.167999999999999927e+00 1.439745348265607163e+03
1.199500000000000011e+00 1.543377995449744503e+03
1.231100000000000083e+00 1.652099216559649221e+03
1.262699999999999934e+00 1.767845865322864256e+03
1.294200000000000017e+00 1.890685783562895949e+03
1.325800000000000090e+00 2.021117456473564289e+03
1.357399999999999940e+00 2.160241018279448781e+03
1.388900000000000023e+00 2.307104106101433445e+03
1.420500000000000096e+00 2.467663847654194342e+03
1.452099999999999946e+00 2.635555960880194561e+03
1.483600000000000030e+00 2.816390021997526219e+03
1.515200000000000102e+00 3.010917385219938751e+03
1.546699999999999964e+00 3.222650466738307387e+03
1.578300000000000036e+00 3.447768922428498627e+03
1.609900000000000109e+00 3.693615446255964343e+03
1.641399999999999970e+00 3.959307417769849053e+03
1.673000000000000043e+00 4.249591295110059946e+03
1.704599999999999893e+00 4.568694730526073727e+03
1.736099999999999977e+00 4.919610191099678559e+03
1.767700000000000049e+00 5.308932882352116394e+03
1.799299999999999899e+00 5.743974099908263270e+03
1.830799999999999983e+00 6.232117543564710104e+03
1.862400000000000055e+00 6.787514212723773198e+03
1.893999999999999906e+00 7.429183491712685282e+03
1.925499999999999989e+00 8.178034454337107491e+03
1.957100000000000062e+00 9.075358543069036386e+03
1.988699999999999912e+00 1.016092184910907054e+04
2.020199999999999996e+00 1.150627589879901461e+04
2.051800000000000068e+00 1.316153063367911091e+04
2.083400000000000141e+00 1.512054446949525845e+04
2.114900000000000002e+00 1.728009207156195407e+04
2.146500000000000075e+00 1.966802721457191001e+04
2.178100000000000147e+00 2.256412061210584216e+04
2.209600000000000009e+00 2.622442044688399255e+04
2.241200000000000081e+00 3.080333437867656539e+04
2.272800000000000153e+00 3.653849350816752849e+04
2.304300000000000015e+00 4.329746289916255046e+04
2.335900000000000087e+00 5.007871108890763571e+04
2.367500000000000160e+00 5.559244859675756015e+04
2.399000000000000021e+00 5.991654988782204600e+04
2.430600000000000094e+00 6.492632363125345000e+04
2.462200000000000166e+00 7.161106762783345766e+04
2.493700000000000028e+00 7.904244066426550853e+04
2.525300000000000100e+00 8.627356447387514345e+04
2.556900000000000173e+00 9.273141978145543544e+04
2.588400000000000034e+00 9.774364486438126187e+04
2.620000000000000107e+00 1.016324941849530151e+05
2.651600000000000179e+00 1.055664031525622559e+05
2.683100000000000041e+00 1.103479089702344791e+05
2.714700000000000113e+00 1.165132454056850838e+05
2.746300000000000185e+00 1.240444392917045334e+05
2.777800000000000047e+00 1.320414895941724244e+05
2.809400000000000119e+00 1.394529857568854059e+05
2.841000000000000192e+00 1.471220686082349275e+05
2.872500000000000053e+00 1.573891615763224836e+05
2.904100000000000126e+00 1.707561903898598976e+05
2.935700000000000198e+00 1.850397308227126487e+05
2.967200000000000060e+00 1.978921495404220477e+05
2.998800000000000132e+00 2.086428251576945477e+05
3.030400000000000205e+00 2.174363046094863676e+05
3.061900000000000066e+00 2.241579972628921678e+05
3.093500000000000139e+00 2.285344999145599140e+05
3.125100000000000211e+00 2.308547000853437639e+05
3.156600000000000072e+00 2.326776664097972389e+05
3.188200000000000145e+00 2.360819856420415745e+05
3.219800000000000217e+00 2.418818484360992152e+05
3.251300000000000079e+00 2.501544221090461942e+05
3.282900000000000151e+00 2.610059263345781073e+05
3.314499999999999780e+00 2.736004445697325864e+05
3.346000000000000085e+00 2.858533261996022193e+05
3.377600000000000158e+00 2.963623809683994623e+05
3.409199999999999786e+00 3.061224562819985440e+05
3.440700000000000092e+00 3.167312549174527521e+05
3.472300000000000164e+00 3.274909591004041722e+05
3.503899999999999793e+00 3.361601741842990159e+05
3.535400000000000098e+00 3.413114208184847375e+05
3.567000000000000171e+00 3.430579359366553836e+05
3.598599999999999799e+00 3.429958019025278045e+05
3.630100000000000104e+00 3.431467942211353802e+05
3.661700000000000177e+00 3.447728502600428183e+05
3.693299999999999805e+00 3.480799028378291987e+05
3.724800000000000111e+00 3.528646521079679951e+05
3.756400000000000183e+00 3.596157711244698148e+05
3.787999999999999812e+00 3.692773713492660318e+05
3.819500000000000117e+00 3.820511557205053978e+05
3.851100000000000190e+00 3.971903161115687690e+05
3.882699999999999818e+00 4.134884612501380616e+05
3.914200000000000124e+00 4.294723435217210208e+05
3.945800000000000196e+00 4.437144606899549253e+05
3.977399999999999824e+00 4.563061201063071494e+05
4.008899999999999686e+00 4.687691937320816214e+05
4.040499999999999758e+00 4.824208430810196442e+05
4.072099999999999831e+00 4.966690005477768136e+05
4.103600000000000136e+00 5.094163466185855796e+05
4.135200000000000209e+00 5.184787551607416244e+05
4.166800000000000281e+00 5.222063073132614372e+05
4.198299999999999699e+00 5.203252070128462510e+05
4.229899999999999771e+00 5.142110473319281591e+05
4.261499999999999844e+00 5.058245419809321756e+05
4.293000000000000149e+00 4.969558310121661634e+05
4.324600000000000222e+00 4.888846819476485834e+05
4.356200000000000294e+00 4.820418618078724830e+05
4.387699999999999712e+00 4.761959708855612553e+05
4.419299999999999784e+00 4.713050860829456360e+05
4.450899999999999856e+00 4.678611091783387819e+05
4.482400000000000162e+00 4.663441347430160968e+05
4.514000000000000234e+00 4.664932062723591225e+05
4.545600000000000307e+00 4.675840942918476649e+05
4.577099999999999724e+00 4.692557618488980806e+05
4.608699999999999797e+00 4.714855447590202093e+05
4.640200000000000102e+00 4.740390624305765377e+05
4.671800000000000175e+00 4.762064146024605725e+05
4.703400000000000247e+00 4.771679550382284797e+05
4.734899999999999665e+00 4.767627152909271535e+05
4.766499999999999737e+00 4.753255983065053588e+05
4.798099999999999810e+00 4.727578913493750151e+05
4.829600000000000115e+00 4.688539891919113579e+05
4.861200000000000188e+00 4.644184198620567331e+05
4.892800000000000260e+00 4.605799223150549224e+05
4.924299999999999677e+00 4.576838373357186210e+05
4.955899999999999750e+00 4.555247476723546279e+05
4.987499999999999822e+00 4.532890629141398240e+05
5.019000000000000128e+00 4.496835756438510143e+05
5.050600000000000200e+00 4.440042946686809300e+05
5.082200000000000273e+00 4.364556488904343569e+05
5.113699999999999690e+00 4.280584515420583775e+05
5.145299999999999763e+00 4.202318860345780849e+05
5.176899999999999835e+00 4.138445283412782592e+05
5.208400000000000141e+00 4.087096137047086959e+05
5.240000000000000213e+00 4.039514632996424916e+05
5.271600000000000286e+00 3.988170643350331811e+05
5.303099999999999703e+00 3.927832220251129474e+05
5.334699999999999775e+00 3.856445331247644499e+05
5.366299999999999848e+00 3.777947507394800195e+05
5.397800000000000153e+00 3.694741380651789950e+05
5.429400000000000226e+00 3.605817393356583198e+05
5.461000000000000298e+00 3.512647362414423260e+05
5.492499999999999716e+00 3.421935014395999606e+05
5.524099999999999788e+00 3.343135734933582135e+05
5.555699999999999861e+00 3.283740264720790437e+05
5.587200000000000166e+00 3.244730434221351752e+05
5.618800000000000239e+00 3.221862792036416358e+05
5.650400000000000311e+00 3.210502354546961724e+05
5.681899999999999729e+00 3.206552491641010856e+05
5.713499999999999801e+00 3.205478938980692765e+05
5.745099999999999874e+00 3.199780248458008282e+05
5.776600000000000179e+00 3.184907037044874160e+05
5.808200000000000252e+00 3.165649880587236257e+05
5.839800000000000324e+00 3.150743776197559782e+05
5.871299999999999741e+00 3.143714338679356733e+05
5.902899999999999814e+00 3.142695091177570284e+05
5.934499999999999886e+00 3.142566499898428447e+05
5.966000000000000192e+00 3.140649555997807765e+05
5.997600000000000264e+00 3.139611153467445401e+05
6.029200000000000337e+00 3.144079753266178886e+05
6.060699999999999754e+00 3.152991217274416122e+05
6.092299999999999827e+00 3.162315629613455967e+05
6.123899999999999899e+00 3.170919659644161002e+05
6.155400000000000205e+00 3.181035978843651246e+05
6.187000000000000277e+00 3.193636913385519874e+05
6.218600000000000350e+00 3.207214873041384271e+05
6.250099999999999767e+00 3.219782718955611927e+05
6.281699999999999839e+00 3.231588315339156543e+05
6.313299999999999912e+00 3.246903743345383555e+05
6.344800000000000217e+00 3.270742725043375394e+05
6.376400000000000290e+00 3.303881185868015746e+05
6.408000000000000362e+00 3.344564828141284524e+05
6.439499999999999780e+00 3.388604662339686765e+05
6.471099999999999852e+00 3.429554371147316997e+05
6.502699999999999925e+00 3.460697787112407386e+05
6.534200000000000230e+00 3.479690430856006569e+05
6.565800000000000303e+00 3.487056152777114767e+05
6.597400000000000375e+00 3.481525581351872534e+05
6.628899999999999793e+00 3.463217905373674585e+05
6.660499999999999865e+00 3.440072675367004704e+05
6.692099999999999937e+00 3.426909450650813524e+05
6.723600000000000243e+00 3.435968944816652220e+05
6.755200000000000315e+00 3.472647464480968192e+05
6.786800000000000388e+00 3.533053706778669148e+05
6.818299999999999805e+00 3.607473499313835637e+05
6.849899999999999878e+00 3.688698085743075935e+05
6.881499999999999950e+00 3.772781424465457676e+05
6.913000000000000256e+00 3.856334535691241035e+05
6.944600000000000328e+00 3.938752344329489279e+05
6.976200000000000401e+00 4.018904458859177539e+05
7.007699999999999818e+00 4.093053249562097481e+05
7.039299999999999891e+00 4.158633976342970273e+05
7.070899999999999963e+00 4.219635061734970659e+05
7.102400000000000269e+00 4.287623110918317689e+05
7.134000000000000341e+00 4.376548738862051396e+05
7.165600000000000414e+00 4.493639093744404963e+05
7.197099999999999831e+00 4.637231342330150655e+05
7.228699999999999903e+00 4.801180832780683413e+05
7.260299999999999976e+00 4.976496512510132161e+05
7.291800000000000281e+00 5.153738765414539375e+05
7.323400000000000354e+00 5.324970804427486146e+05
7.355000000000000426e+00 5.481011649812564719e+05
7.386499999999999844e+00 5.617334663902386092e+05
7.418099999999999916e+00 5.740968324100691825e+05
7.449699999999999989e+00 5.861583765117839212e+05
7.481200000000000294e+00 5.981793569116364233e+05
7.512800000000000367e+00 6.101018463107096031e+05
7.544400000000000439e+00 6.222651555480184034e+05
7.575899999999999856e+00 6.350819730505282059e+05
7.607499999999999929e+00 6.483971256965517532e+05
7.639100000000000001e+00 6.613135963072329760e+05
7.670600000000000307e+00 6.729271146572025027e+05
7.702200000000000379e+00 6.831060152361060027e+05
7.733699999999999797e+00 6.924963226322201081e+05
7.765299999999999869e+00 7.016816531553232344e+05
7.796899999999999942e+00 7.102500626572071342e+05
7.828400000000000247e+00 7.169358772106515244e+05
7.860000000000000320e+00 7.208519775133733638e+05
7.891600000000000392e+00 7.224046635610226076e+05
7.923099999999999810e+00 7.224749157120725140e+05
7.954699999999999882e+00 7.217460593174076639e+05
7.986299999999999955e+00 7.212846468790424988e+05
8.017799999999999372e+00 7.225154543147142977e+05
8.049400000000000333e+00 7.264692393830831861e+05
8.080999999999999517e+00 7.329575201312782010e+05
8.112500000000000711e+00 7.404330515242730035e+05
8.144099999999999895e+00 7.470323169195252704e+05
8.175700000000000855e+00 7.521133677623828407e+05
8.207200000000000273e+00 7.562049317001465242e+05
8.238799999999999457e+00 7.599064414725459646e+05
8.270400000000000418e+00 7.635071105637496803e+05
8.301899999999999835e+00 7.669545649229027331e+05
8.333500000000000796e+00 7.700492731067369459e+05
8.365099999999999980e+00 7.727472190904050367e+05
8.396599999999999397e+00 7.750446153461294016e+05
8.428200000000000358e+00 7.768800347021752968e+05
8.459799999999999542e+00 7.779534495830202941e+05
8.491300000000000736e+00 7.782155661795245251e+05
8.522899999999999920e+00 7.781772873168897349e+05
8.554500000000000881e+00 7.784711106682622340e+05
8.586000000000000298e+00 7.797095187690720195e+05
8.617599999999999483e+00 7.825351677463819506e+05
8.649200000000000443e+00 7.871414380234163254e+05
8.680699999999999861e+00 7.930112467592348112e+05
8.712300000000000821e+00 7.994636988932023523e+05
8.743900000000000006e+00 8.058626713056023000e+05
8.775399999999999423e+00 8.117035848362718243e+05
8.807000000000000384e+00 8.166714265188185964e+05
8.838599999999999568e+00 8.206250188446326647e+05
8.870100000000000762e+00 8.237002259246861795e+05
8.901699999999999946e+00 8.263154663070295937e+05
8.933299999999999130e+00 8.287083506858022884e+05
8.964800000000000324e+00 8.307343066970958607e+05
8.996399999999999508e+00 8.323508407509515528e+05
9.028000000000000469e+00 8.337268529429335613e+05
9.059499999999999886e+00 8.351643881219647592e+05
9.091100000000000847e+00 8.369169582239631563e+05
9.122700000000000031e+00 8.393208017710201675e+05
9.154199999999999449e+00 8.428535339070030022e+05
9.185800000000000409e+00 8.475890584655486746e+05
9.217399999999999594e+00 8.529003588421350578e+05
9.248900000000000787e+00 8.577780959271537140e+05
9.280499999999999972e+00 8.614696961240042001e+05
9.312099999999999156e+00 8.638081704781214939e+05
9.343600000000000350e+00 8.650870436947840499e+05
9.375199999999999534e+00 8.659333828160814010e+05
9.406800000000000495e+00 8.668930729616386816e+05
9.438299999999999912e+00 8.683129490172554506e+05
9.469900000000000873e+00 8.703236714260599110e+05
9.501500000000000057e+00 8.728027368228435516e+05
9.532999999999999474e+00 8.756579265976254828e+05
9.564600000000000435e+00 8.788688697332782904e+05
9.596199999999999619e+00 8.823937189093012130e+05
9.627700000000000813e+00 8.860136856310903095e+05
9.659299999999999997e+00 8.898882207965847338e+05
9.690899999999999181e+00 8.946451536990778986e+05
9.722400000000000375e+00 9.007426833174794447e+05
9.753999999999999559e+00 9.081016561778178439e+05
9.785600000000000520e+00 9.164805934518022696e+05
9.817099999999999937e+00 9.258105225765310461e+05
9.848699999999999122e+00 9.358379225521299522e+05
9.880300000000000082e+00 9.457649534351115581e+05
9.911799999999999500e+00 9.546452477962611010e+05
9.943400000000000460e+00 9.620722249504231149e+05
9.974999999999999645e+00 9.681484210876530269e+05
1.000650000000000084e+01 9.734330713087953627e+05
1.003810000000000002e+01 9.790105328468065709e+05
1.006969999999999921e+01 9.857846173231432913e+05
1.010120000000000040e+01 9.938802809786165599e+05
1.013279999999999959e+01 1.002623464664568892e+06
1.016440000000000055e+01 1.011043130517411162e+06
1.019589999999999996e+01 1.018644521949221846e+06
1.022749999999999915e+01 1.026102508635803824e+06
1.025910000000000011e+01 1.034562060185078648e+06
1.029059999999999953e+01 1.043322343622332090e+06
1.032220000000000049e+01 1.050092606049046852e+06
1.035379999999999967e+01 1.053470580411893548e+06
1.038530000000000086e+01 1.054534584135889774e+06
1.041690000000000005e+01 1.054908238545811735e+06
1.044849999999999923e+01 1.055267879494500579e+06
1.048000000000000043e+01 1.055854410513458541e+06
1.051159999999999961e+01 1.057064971594788367e+06
1.054320000000000057e+01 1.059158888854268705e+06
1.057469999999999999e+01 1.062414385028071003e+06
1.060629999999999917e+01 1.067040242244671797e+06
1.063790000000000013e+01 1.072592678276453167e+06
1.066939999999999955e+01 1.077787387266730424e+06
1.070100000000000051e+01 1.081400605303398799e+06
1.073259999999999970e+01 1.082863687276966870e+06
1.076409999999999911e+01 1.082360267319227336e+06
1.079570000000000007e+01 1.080029367757588625e+06
1.082719999999999949e+01 1.075861339442525059e+06
1.085880000000000045e+01 1.070167670715966728e+06
1.089039999999999964e+01 1.063286964852189180e+06
1.092190000000000083e+01 1.055461398888189811e+06
1.095350000000000001e+01 1.047471607607025187e+06
1.098509999999999920e+01 1.040597439425643650e+06
1.101660000000000039e+01 1.035666978706039255e+06
1.104819999999999958e+01 1.032490101035753149e+06
1.107980000000000054e+01 1.030257938662816887e+06
1.111129999999999995e+01 1.028357722648718744e+06
1.114289999999999914e+01 1.025994257174292579e+06
1.117450000000000010e+01 1.022782240383204655e+06
1.120599999999999952e+01 1.019241350943770725e+06
1.123760000000000048e+01 1.016621306894943002e+06
1.126919999999999966e+01 1.015818226913866820e+06
1.130070000000000086e+01 1.016826614409484901e+06
1.133230000000000004e+01 1.018958314124421682e+06
1.136389999999999922e+01 1.021191403814436286e+06
1.139540000000000042e+01 1.022119479028668837e+06
1.142699999999999960e+01 1.020542897273730719e+06
1.145860000000000056e+01 1.016414339933642535e+06
1.149009999999999998e+01 1.010454557304008282e+06
1.152169999999999916e+01 1.003426289678348578e+06
1.155330000000000013e+01 9.960110873058519792e+05
1.158479999999999954e+01 9.890879619241775945e+05
1.161640000000000050e+01 9.832351040669110371e+05
1.164799999999999969e+01 9.783530384701834992e+05
1.167950000000000088e+01 9.741701711085177958e+05
1.171110000000000007e+01 9.707775883503002115e+05
1.174269999999999925e+01 9.681955730348833604e+05
1.177420000000000044e+01 9.661509039807103109e+05
1.180579999999999963e+01 9.647523773050392047e+05
1.183740000000000059e+01 9.641755571134767961e+05
1.186890000000000001e+01 9.646901704906427767e+05
1.190049999999999919e+01 9.665323166608239990e+05
1.193210000000000015e+01 9.695307694987530122e+05
1.196359999999999957e+01 9.727900970972105861e+05
1.199520000000000053e+01 9.749983756477101706e+05
1.202679999999999971e+01 9.757116283363383263e+05
1.205829999999999913e+01 9.753871469040295342e+05
1.208990000000000009e+01 9.746553232408626936e+05
1.212149999999999928e+01 9.738528590964687755e+05
1.215300000000000047e+01 9.731156055253398372e+05
1.218459999999999965e+01 9.731685844759262400e+05
1.221620000000000061e+01 9.744954344392004423e+05
1.224770000000000003e+01 9.766075374422909226e+05
1.227929999999999922e+01 9.788968422388589242e+05
1.231090000000000018e+01 9.814838794984610286e+05
1.234239999999999959e+01 9.848496954360902309e+05
1.237400000000000055e+01 9.893065842315243790e+05
1.240559999999999974e+01 9.947254912204378052e+05
1.243709999999999916e+01 1.000212358564931899e+06
1.246870000000000012e+01 1.004780037437071558e+06
1.250029999999999930e+01 1.008541403828879585e+06
1.253180000000000049e+01 1.012430100815921673e+06
1.256339999999999968e+01 1.017157173925222014e+06
