# energy(eV) alpha
0.000000000000000000e+00 0.000000000000000000e+00
3.109999999999999917e-02 1.026833472907041411e+00
6.210000000000000242e-02 4.051634253683071840e+00
9.320000000000000506e-02 9.156643215125033208e+00
1.242999999999999938e-01 1.650806209006026748e+01
1.552999999999999936e-01 2.562348105824570510e+01
1.864000000000000101e-01 3.689615105654549865e+01
2.174999999999999989e-01 5.055383401007760114e+01
2.484999999999999987e-01 6.632138240625960179e+01
2.796000000000000152e-01 8.424480784384491017e+01
3.106999999999999762e-01 1.045385592939693140e+02
3.417000000000000037e-01 1.269651121845938206e+02
3.728000000000000203e-01 1.521719709369699274e+02
4.038999999999999813e-01 1.789986550928528573e+02
4.349000000000000088e-01 2.092856466999204486e+02
4.660000000000000253e-01 2.415841586697560786e+02
4.970999999999999863e-01 2.773196848358774673e+02
5.281000000000000139e-01 3.158134829735305971e+02
5.592000000000000304e-01 3.568022006436594893e+02
5.903000000000000469e-01 4.015992887396217839e+02
6.212999999999999634e-01 4.488751869116856028e+02
6.523999999999999799e-01 4.997751068780970627e+02
6.834999999999999964e-01 5.554111848139490348e+02
7.145000000000000240e-01 6.137426046388271743e+02
7.456000000000000405e-01 6.766465773881789119e+02
7.766999999999999460e-01 7.430319596001463651e+02
8.076999999999999735e-01 8.153304530321869379e+02
8.387999999999999901e-01 8.927659676201526509e+02
8.699000000000000066e-01 9.754137990152700013e+02
9.009000000000000341e-01 1.063325055063909758e+03
9.320000000000000506e-01 1.157610037234390347e+03
9.630999999999999561e-01 1.259856525337914036e+03
9.940999999999999837e-01 1.368769215911156380e+03
1.025199999999999889e+00 1.486387474309514573e+03
1.056300000000000017e+00 1.612908286396133690e+03
1.087299999999999933e+00 1.750157781579437369e+03
1.118400000000000061e+00 1.898878658905033490e+03
1.149499999999999966e+00 2.061090497353300634e+03
1.180500000000000105e+00 2.236243039731217323e+03
1.211600000000000010e+00 2.428792850414652094e+03
1.242699999999999916e+00 2.641082340691230911e+03
1.273800000000000043e+00 2.873891817215413084e+03
1.304799999999999960e+00 3.134511256347020208e+03
1.335900000000000087e+00 3.425440061745463481e+03
1.366999999999999993e+00 3.753630897201213884e+03
1.397999999999999909e+00 4.127307866906158779e+03
1.429100000000000037e+00 4.556000878951281265e+03
1.460199999999999942e+00 5.056239662970711834e+03
1.491200000000000081e+00 5.647397463680011242e+03
1.522299999999999986e+00 6.360777543346434868e+03
1.553399999999999892e+00 7.239108927699204287e+03
1.584400000000000031e+00 8.342820629662228384e+03
1.615499999999999936e+00 9.768950970309480908e+03
1.646600000000000064e+00 1.163841101532995344e+04
1.677599999999999980e+00 1.406592438392438271e+04
1.708700000000000108e+00 1.708483411425443046e+04
1.739800000000000013e+00 2.057321741496336836e+04
1.770799999999999930e+00 2.431886485716905736e+04
1.801900000000000057e+00 2.814963524523217711e+04
1.832999999999999963e+00 3.207102514659764347e+04
1.864000000000000101e+00 3.622590328807254264e+04
1.895100000000000007e+00 4.063939484306293161e+04
1.926199999999999912e+00 4.494614602046612708e+04
1.957200000000000051e+00 4.860386267249629600e+04
1.988299999999999956e+00 5.133445126203772088e+04
2.019400000000000084e+00 5.309974119488304132e+04
2.050399999999999778e+00 5.402432045212396042e+04
2.081500000000000128e+00 5.459482763788934972e+04
2.112600000000000033e+00 5.532267838815521100e+04
2.143600000000000172e+00 5.637297423546821665e+04
2.174700000000000077e+00 5.765779503765786649e+04
2.205799999999999983e+00 5.912235587574068632e+04
2.236800000000000122e+00 6.093683315957246668e+04
2.267900000000000027e+00 6.341634259839687002e+04
2.298999999999999932e+00 6.698974638276088808e+04
2.330000000000000071e+00 7.185346470284015231e+04
2.361099999999999977e+00 7.746707314103181125e+04
2.392199999999999882e+00 8.310465401159315661e+04
2.423200000000000021e+00 8.856527594913070789e+04
2.454299999999999926e+00 9.413241240784722322e+04
2.485399999999999832e+00 1.003926073728100455e+05
2.516399999999999970e+00 1.071912375148909050e+05
2.547499999999999876e+00 1.138879192029887345e+05
2.578599999999999781e+00 1.200916663421760750e+05
2.609599999999999920e+00 1.248666700055748370e+05
2.640699999999999825e+00 1.279576630409953214e+05
2.671800000000000175e+00 1.306240024904091697e+05
2.702799999999999869e+00 1.342222339094599592e+05
2.733900000000000219e+00 1.394689450979301764e+05
2.765000000000000124e+00 1.462882716425692197e+05
2.795999999999999819e+00 1.536262604081143218e+05
2.827100000000000168e+00 1.602407410266273364e+05
2.858200000000000074e+00 1.667626813121281739e+05
2.889200000000000212e+00 1.755269519890300580e+05
2.920300000000000118e+00 1.884317203498117451e+05
2.951400000000000023e+00 2.046776184482995304e+05
2.982400000000000162e+00 2.208733840612574131e+05
3.013500000000000068e+00 2.333569038983802020e+05
3.044599999999999973e+00 2.408729785360394162e+05
3.075600000000000112e+00 2.450622712920716149e+05
3.106700000000000017e+00 2.473445167015078187e+05
3.137799999999999923e+00 2.487277412211715418e+05
3.168800000000000061e+00 2.507009519697734213e+05
3.199899999999999967e+00 2.540568007917575014e+05
3.230999999999999872e+00 2.593639587726133177e+05
3.262000000000000011e+00 2.672658776193263475e+05
3.293099999999999916e+00 2.774170456370111206e+05
3.324199999999999822e+00 2.875773152131966199e+05
3.355199999999999960e+00 2.959937959991988027e+05
3.386299999999999866e+00 3.038454294183561578e+05
3.417400000000000215e+00 3.116977118076619809e+05
3.448399999999999910e+00 3.187514726558302646e+05
3.479499999999999815e+00 3.255394011482315836e+05
3.510600000000000165e+00 3.323593901365068741e+05
3.541599999999999859e+00 3.383166016443878179e+05
3.572700000000000209e+00 3.426590063997124671e+05
3.603800000000000114e+00 3.449362512305561686e+05
3.634799999999999809e+00 3.448329173392726225e+05
3.665900000000000158e+00 3.434288040262008435e+05
3.697000000000000064e+00 3.426149235788582591e+05
3.728000000000000203e+00 3.443424846329455031e+05
3.759100000000000108e+00 3.502394070677420241e+05
3.790200000000000014e+00 3.605287893981701927e+05
3.821299999999999919e+00 3.740548076275116182e+05
3.852300000000000058e+00 3.894294708622912294e+05
3.883399999999999963e+00 4.055836030253528152e+05
3.914499999999999869e+00 4.218464764911422972e+05
3.945500000000000007e+00 4.383521430557905114e+05
3.976599999999999913e+00 4.553321888930879068e+05
4.007699999999999818e+00 4.726093827279570396e+05
4.038700000000000401e+00 4.892943398852501996e+05
4.069799999999999862e+00 5.039809162132084602e+05
4.100900000000000212e+00 5.155418026071843342e+05
4.131899999999999906e+00 5.234799682703017024e+05
4.163000000000000256e+00 5.265336842539635254e+05
4.194099999999999717e+00 5.231425758756453870e+05
4.225100000000000300e+00 5.135195295337584103e+05
4.256199999999999761e+00 5.000290562887360575e+05
4.287300000000000111e+00 4.858781657682139776e+05
4.318299999999999805e+00 4.736273531713142293e+05
4.349400000000000155e+00 4.642189622719100444e+05
4.380499999999999616e+00 4.572221514376582345e+05
4.411500000000000199e+00 4.522898974934846628e+05
4.442599999999999660e+00 4.499121609839202720e+05
4.473700000000000010e+00 4.506634647040955024e+05
4.504699999999999704e+00 4.537641512063861592e+05
4.535800000000000054e+00 4.574936886681771721e+05
4.566900000000000404e+00 4.605894823810241069e+05
4.597900000000000098e+00 4.629387908092839643e+05
4.628999999999999559e+00 4.646662990758989472e+05
4.660099999999999909e+00 4.656907333182955044e+05
4.691099999999999604e+00 4.667566449510190287e+05
4.722199999999999953e+00 4.682465610835184343e+05
4.753300000000000303e+00 4.688793343597867643e+05
4.784299999999999997e+00 4.671472148687317385e+05
4.815400000000000347e+00 4.633678470091668423e+05
4.846499999999999808e+00 4.589261205748860957e+05
4.877500000000000391e+00 4.546337931346582482e+05
4.908599999999999852e+00 4.506383967791650794e+05
4.939700000000000202e+00 4.463887200701480033e+05
4.970699999999999896e+00 4.409273883790396503e+05
5.001800000000000246e+00 4.334157120040811715e+05
5.032899999999999707e+00 4.238269811045217211e+05
5.063900000000000290e+00 4.134020444307730650e+05
5.094999999999999751e+00 4.037661176183223724e+05
5.126100000000000101e+00 3.959448866105061024e+05
5.157099999999999795e+00 3.903821764438115642e+05
5.188200000000000145e+00 3.869701286755837500e+05
5.219299999999999606e+00 3.848104973961559590e+05
5.250300000000000189e+00 3.831181793620235985e+05
5.281399999999999650e+00 3.813738235260298243e+05
5.312500000000000000e+00 3.789403442465601256e+05
5.343499999999999694e+00 3.749548561046036775e+05
5.374600000000000044e+00 3.683669113706148928e+05
5.405700000000000394e+00 3.587008088082560571e+05
5.436700000000000088e+00 3.469034514563543489e+05
5.467800000000000438e+00 3.349577948533739545e+05
5.498899999999999899e+00 3.249092702488193172e+05
5.529899999999999594e+00 3.181530379053010838e+05
5.560999999999999943e+00 3.147508156241426477e+05
5.592100000000000293e+00 3.135360236704048584e+05
5.623099999999999987e+00 3.131347994126146659e+05
5.654200000000000337e+00 3.125173511223884416e+05
5.685299999999999798e+00 3.109764188379823463e+05
5.716300000000000381e+00 3.081919405531777302e+05
5.747399999999999842e+00 3.048165268582259887e+05
5.778500000000000192e+00 3.022553280237527215e+05
5.809499999999999886e+00 3.015501276459369692e+05
5.840600000000000236e+00 3.023842753411380108e+05
5.871699999999999697e+00 3.035139211604045704e+05
5.902700000000000280e+00 3.039856012189843459e+05
5.933799999999999741e+00 3.037698666783294175e+05
5.964900000000000091e+00 3.036129367860092898e+05
5.995899999999999785e+00 3.043562961815936724e+05
6.027000000000000135e+00 3.061618600131028215e+05
6.058099999999999596e+00 3.082145543861648184e+05
6.089100000000000179e+00 3.096883586291345418e+05
6.120199999999999640e+00 3.107372222909939010e+05
6.151299999999999990e+00 3.118212408572043059e+05
6.182299999999999685e+00 3.129349508924060501e+05
6.213400000000000034e+00 3.139043775112926378e+05
6.244500000000000384e+00 3.150238201910887146e+05
6.275599999999999845e+00 3.170083847176475683e+05
6.306600000000000428e+00 3.203486772955920896e+05
6.337699999999999889e+00 3.249379274508422823e+05
6.368800000000000239e+00 3.302456691701425007e+05
6.399799999999999933e+00 3.351535279791607172e+05
6.430900000000000283e+00 3.386099558539655991e+05
6.461999999999999744e+00 3.402733253256304888e+05
6.493000000000000327e+00 3.400261301990045467e+05
6.524099999999999788e+00 3.376842095419528778e+05
6.555200000000000138e+00 3.335941944270334207e+05
6.586199999999999832e+00 3.289344830566440942e+05
6.617300000000000182e+00 3.252084580284745898e+05
6.648399999999999643e+00 3.235569917924947804e+05
6.679400000000000226e+00 3.246827025341797853e+05
6.710499999999999687e+00 3.289554001855426468e+05
6.741600000000000037e+00 3.361904529583972762e+05
6.772599999999999731e+00 3.453513053219603607e+05
6.803700000000000081e+00 3.549505003085138160e+05
6.834800000000000431e+00 3.639241417532362975e+05
6.865800000000000125e+00 3.717257434434809838e+05
6.896899999999999586e+00 3.785600020698601729e+05
6.927999999999999936e+00 3.851951740545235807e+05
6.958999999999999631e+00 3.920270502111858223e+05
6.990099999999999980e+00 3.989517597862587427e+05
7.021200000000000330e+00 4.059761456078577321e+05
7.052200000000000024e+00 4.134113472167369910e+05
7.083300000000000374e+00 4.220482024169588112e+05
7.114399999999999835e+00 4.328212445341409184e+05
7.145400000000000418e+00 4.459559372345861630e+05
7.176499999999999879e+00 4.611376083251609234e+05
7.207600000000000229e+00 4.781314396051921067e+05
7.238599999999999923e+00 4.965409868377704988e+05
7.269700000000000273e+00 5.152309946724026813e+05
7.300799999999999734e+00 5.326859509980020812e+05
7.331800000000000317e+00 5.477874211629673373e+05
7.362899999999999778e+00 5.606318291805410990e+05
7.394000000000000128e+00 5.723314907816763734e+05
7.424999999999999822e+00 5.841215628621255746e+05
7.456100000000000172e+00 5.965962262384195346e+05
7.487199999999999633e+00 6.096764580035072286e+05
7.518200000000000216e+00 6.228147516696469393e+05
7.549299999999999677e+00 6.352172965481544379e+05
7.580400000000000027e+00 6.462306278683122946e+05
7.611399999999999721e+00 6.558349496063641272e+05
7.642500000000000071e+00 6.644860280915977200e+05
7.673600000000000421e+00 6.727327097073076293e+05
7.704600000000000115e+00 6.810404938438448589e+05
7.735699999999999577e+00 6.895359671401779633e+05
7.766799999999999926e+00 6.975564281911170110e+05
7.797799999999999621e+00 7.039926338715498568e+05
7.828899999999999970e+00 7.080995920572980540e+05
7.860000000000000320e+00 7.095775296726158122e+05
7.891000000000000014e+00 7.087432947678520577e+05
7.922100000000000364e+00 7.066501673754986841e+05
7.953199999999999825e+00 7.045103609810498310e+05
7.984200000000000408e+00 7.036931498208889971e+05
8.015299999999999869e+00 7.053779993966305628e+05
8.046400000000000219e+00 7.097877884941683151e+05
8.077400000000000801e+00 7.158268397095033433e+05
8.108499999999999375e+00 7.219499680936534423e+05
8.139599999999999724e+00 7.274064500616821460e+05
8.170600000000000307e+00 7.323688320542930160e+05
8.201700000000000657e+00 7.369813225535494275e+05
8.232799999999999230e+00 7.411188393339529866e+05
8.263799999999999812e+00 7.446294391912178835e+05
8.294900000000000162e+00 7.474432948095286265e+05
8.326000000000000512e+00 7.495622842027570587e+05
8.356999999999999318e+00 7.509304905628541019e+05
8.388099999999999667e+00 7.516489862397698453e+05
8.419200000000000017e+00 7.517642318493413040e+05
8.450200000000000600e+00 7.514945895347082987e+05
8.481299999999999173e+00 7.517422049649491673e+05
8.512399999999999523e+00 7.529652038511213614e+05
8.543400000000000105e+00 7.550077406645335723e+05
8.574500000000000455e+00 7.575914591923354892e+05
8.605600000000000804e+00 7.607325683353068307e+05
8.636599999999999611e+00 7.646726077595591778e+05
8.667699999999999960e+00 7.694858848277992802e+05
8.698800000000000310e+00 7.748855310318722622e+05
8.729799999999999116e+00 7.804948254196437774e+05
8.760899999999999466e+00 7.861254605427968781e+05
8.791999999999999815e+00 7.919808262299553026e+05
8.823100000000000165e+00 7.983804611027638894e+05
8.854100000000000747e+00 8.051527730529110413e+05
8.885199999999999321e+00 8.117308729918092722e+05
8.916299999999999670e+00 8.175453480154167628e+05
8.947300000000000253e+00 8.223178986843215534e+05
8.978400000000000603e+00 8.258850413953360403e+05
9.009499999999999176e+00 8.282672650922642788e+05
9.040499999999999758e+00 8.296572611968341516e+05
9.071600000000000108e+00 8.307553294429626549e+05
9.102700000000000458e+00 8.324602048739232123e+05
9.133699999999999264e+00 8.350732124976407504e+05
9.164799999999999613e+00 8.384881300403771456e+05
9.195899999999999963e+00 8.424761285107485019e+05
9.226900000000000546e+00 8.466686955611967715e+05
9.257999999999999119e+00 8.507286534911456984e+05
9.289099999999999469e+00 8.546917116905857110e+05
9.320100000000000051e+00 8.588259801093777642e+05
9.351200000000000401e+00 8.630798263887654757e+05
9.382300000000000750e+00 8.668579062122683972e+05
9.413299999999999557e+00 8.698017120637196349e+05
9.444399999999999906e+00 8.720099481789607089e+05
9.475500000000000256e+00 8.735862767931284616e+05
9.506500000000000838e+00 8.746924190998059930e+05
9.537599999999999412e+00 8.754197615903887199e+05
9.568699999999999761e+00 8.758829559232045431e+05
9.599700000000000344e+00 8.766056675827283179e+05
9.630800000000000693e+00 8.785313387943144189e+05
9.661899999999999267e+00 8.823756540808177087e+05
9.692899999999999849e+00 8.880752373223470058e+05
9.724000000000000199e+00 8.950732253228363115e+05
9.755100000000000549e+00 9.027397712825008202e+05
9.786099999999999355e+00 9.106074836700293235e+05
9.817199999999999704e+00 9.181684046247648075e+05
9.848300000000000054e+00 9.249934460432223277e+05
9.879300000000000637e+00 9.306910193079285091e+05
9.910399999999999210e+00 9.354025282899272861e+05
9.941499999999999559e+00 9.400209823438087478e+05
9.972500000000000142e+00 9.455887573505447945e+05
1.000360000000000049e+01 9.523770755697831046e+05
1.003470000000000084e+01 9.596442877892135875e+05
1.006569999999999965e+01 9.666914421669844305e+05
1.009680000000000000e+01 9.736130435642324155e+05
1.012790000000000035e+01 9.803186475023139501e+05
1.015889999999999915e+01 9.861862037009304622e+05
1.018999999999999950e+01 9.916145504178783158e+05
1.022109999999999985e+01 9.977627524469748605e+05
1.025210000000000043e+01 1.004163456668474479e+06
1.028320000000000078e+01 1.008333987365960260e+06
1.031429999999999936e+01 1.009114413498041336e+06
1.034529999999999994e+01 1.007717041597025585e+06
1.037640000000000029e+01 1.005784715747810085e+06
1.040750000000000064e+01 1.004074432721871417e+06
1.043849999999999945e+01 1.002692462655914831e+06
1.046959999999999980e+01 1.002178338656767388e+06
1.050070000000000014e+01 1.003730107559187454e+06
1.053170000000000073e+01 1.008581722751796246e+06
1.056279999999999930e+01 1.017123603964061360e+06
1.059389999999999965e+01 1.027803961552378139e+06
1.062490000000000023e+01 1.037712282207867131e+06
1.065600000000000058e+01 1.044607546044445946e+06
1.068709999999999916e+01 1.047655751823391067e+06
1.071809999999999974e+01 1.047391121594037744e+06
1.074920000000000009e+01 1.045281266689665033e+06
1.078030000000000044e+01 1.042564339858547086e+06
1.081129999999999924e+01 1.039590737835189095e+06
1.084239999999999959e+01 1.035943843143034959e+06
1.087349999999999994e+01 1.031466736980307964e+06
1.090450000000000053e+01 1.026734309739536373e+06
1.093560000000000088e+01 1.022665531885041855e+06
1.096669999999999945e+01 1.020054514199633384e+06
1.099770000000000003e+01 1.019237330153053859e+06
1.102880000000000038e+01 1.019933511803875212e+06
1.105990000000000073e+01 1.021229429676188272e+06
1.109089999999999954e+01 1.022159206479468616e+06
1.112199999999999989e+01 1.021949877369735041e+06
1.115310000000000024e+01 1.020063010978879989e+06
1.118410000000000082e+01 1.016677896120094694e+06
1.121519999999999939e+01 1.012988103076180327e+06
1.124629999999999974e+01 1.010471589220530353e+06
1.127740000000000009e+01 1.010169586702368222e+06
1.130840000000000067e+01 1.011884110739659751e+06
1.133949999999999925e+01 1.014205625778887654e+06
1.137059999999999960e+01 1.015133195700767334e+06
1.140160000000000018e+01 1.013184231979633099e+06
1.143270000000000053e+01 1.008290094703320297e+06
1.146380000000000088e+01 1.001969814466760145e+06
1.149479999999999968e+01 9.955171893770392053e+05
1.152590000000000003e+01 9.891744045858638128e+05
1.155700000000000038e+01 9.826545234648372279e+05
1.158799999999999919e+01 9.756971759597102646e+05
1.161909999999999954e+01 9.681310235312175937e+05
1.165019999999999989e+01 9.601937028217945481e+05
1.168120000000000047e+01 9.523139666747624287e+05
1.171230000000000082e+01 9.448360529880900867e+05
1.174339999999999939e+01 9.381803701068140799e+05
1.177439999999999998e+01 9.330702152116454672e+05
1.180550000000000033e+01 9.304012487533028470e+05
1.183660000000000068e+01 9.307377383684820961e+05
1.186759999999999948e+01 9.340322313647997798e+05
1.189869999999999983e+01 9.393735216667001368e+05
1.192980000000000018e+01 9.450452953847234603e+05
1.196080000000000076e+01 9.496517758775735274e+05
1.199189999999999934e+01 9.525887545215958962e+05
1.202299999999999969e+01 9.537748840839333134e+05
1.205400000000000027e+01 9.534920315943439491e+05
1.208510000000000062e+01 9.523896220494833542e+05
1.211619999999999919e+01 9.510363248517448083e+05
1.214719999999999978e+01 9.499450207878325600e+05
1.217830000000000013e+01 9.494987378978022607e+05
1.220940000000000047e+01 9.497793891266282881e+05
1.224039999999999928e+01 9.508354671308123507e+05
1.227149999999999963e+01 9.526044508719742298e+05
1.230259999999999998e+01 9.550587234979285859e+05
1.233360000000000056e+01 9.584009538308482151e+05
1.236469999999999914e+01 9.623972741671963595e+05
