# energy(eV) alpha
0.000000000000000000e+00 0.000000000000000000e+00
3.289999999999999869e-02 4.941870657375553866e-01
6.579999999999999738e-02 1.918538606389686763e+00
9.869999999999999607e-02 4.360036639811699644e+00
1.315999999999999948e-01 7.905514844110286710e+00
1.645000000000000073e-01 1.235090294664789567e+01
1.973999999999999921e-01 1.778278763779344018e+01
2.303000000000000047e-01 2.399712491729502517e+01
2.631999999999999895e-01 3.160261384947716579e+01
2.962000000000000188e-01 4.000200565159065746e+01
3.291000000000000036e-01 4.937161580169924946e+01
3.619999999999999885e-01 6.036071358322069358e+01
3.948999999999999733e-01 7.174803678656566319e+01
4.278000000000000136e-01 8.448981976130549754e+01
4.606999999999999984e-01 9.785904963817355906e+01
4.935999999999999832e-01 1.130708623381284070e+02
5.264999999999999680e-01 1.293693907590001118e+02
5.594000000000000083e-01 1.467509100746011654e+02
5.923000000000000487e-01 1.652138806513686689e+02
6.251999999999999780e-01 1.847530948205562709e+02
6.581000000000000183e-01 2.059470910857893386e+02
6.909999999999999476e-01 2.276596093085886992e+02
7.238999999999999879e-01 2.517119309195796859e+02
7.568000000000000282e-01 2.762768310107097136e+02
7.896999999999999575e-01 3.026483120199978885e+02
8.226999999999999869e-01 3.302303072583408721e+02
8.556000000000000272e-01 3.596847609058611397e+02
8.884999999999999565e-01 3.903534794717406271e+02
9.213999999999999968e-01 4.222310314863318013e+02
9.543000000000000371e-01 4.561436531324146699e+02
9.871999999999999664e-01 4.921713893036828154e+02
1.020100000000000007e+00 5.294996450749835049e+02
1.052999999999999936e+00 5.690390513360418936e+02
1.085900000000000087e+00 6.108629263459265530e+02
1.118800000000000017e+00 6.531022507275907856e+02
1.151699999999999946e+00 6.986655165284583973e+02
1.184600000000000097e+00 7.466838063005986896e+02
1.217500000000000027e+00 7.961709000525004285e+02
1.250399999999999956e+00 8.492792980475227296e+02
1.283300000000000107e+00 9.039401868525678765e+02
1.316200000000000037e+00 9.601414049667602058e+02
1.349099999999999966e+00 1.020204123603605808e+03
1.382100000000000106e+00 1.084337337779949166e+03
1.415000000000000036e+00 1.150114814117746619e+03
1.447899999999999965e+00 1.221312023892740172e+03
1.480799999999999894e+00 1.293075121209773670e+03
1.513700000000000045e+00 1.370486983275407965e+03
1.546599999999999975e+00 1.452446432664697568e+03
1.579499999999999904e+00 1.536376674954212604e+03
1.612400000000000055e+00 1.627758155408741231e+03
1.645299999999999985e+00 1.721262017729666695e+03
1.678199999999999914e+00 1.821158023232132791e+03
1.711100000000000065e+00 1.927600708222940966e+03
1.743999999999999995e+00 2.037860704957139660e+03
1.776899999999999924e+00 2.154959700666172921e+03
1.809800000000000075e+00 2.280611406651227753e+03
1.842700000000000005e+00 2.413499470229078725e+03
1.875599999999999934e+00 2.553787222987869882e+03
1.908500000000000085e+00 2.704854168597413263e+03
1.941500000000000004e+00 2.865472650477232037e+03
1.974399999999999933e+00 3.035598023892203400e+03
2.007299999999999862e+00 3.217194645625205794e+03
2.040200000000000014e+00 3.413946515473332965e+03
2.073100000000000165e+00 3.629599456490877401e+03
2.105999999999999872e+00 3.857733446245290907e+03
2.138900000000000023e+00 4.105540389819470874e+03
2.171800000000000175e+00 4.375215754606043447e+03
2.204699999999999882e+00 4.672615523641111395e+03
2.237600000000000033e+00 4.998334210565104513e+03
2.270500000000000185e+00 5.356568188942419511e+03
2.303399999999999892e+00 5.757228374021416130e+03
2.336300000000000043e+00 6.206754321101253481e+03
2.369200000000000195e+00 6.715421726301175113e+03
2.402099999999999902e+00 7.297677242572965042e+03
2.435000000000000053e+00 7.979821522970445585e+03
2.467999999999999972e+00 8.787198800554888294e+03
2.500900000000000123e+00 9.764412366641483459e+03
2.533799999999999830e+00 1.097217158309984916e+04
2.566699999999999982e+00 1.247109486785217632e+04
2.599600000000000133e+00 1.426977221156079395e+04
2.632499999999999840e+00 1.625389032832940029e+04
2.665399999999999991e+00 1.838146313677974831e+04
2.698300000000000143e+00 2.101064808861784331e+04
2.731199999999999850e+00 2.467029905775078078e+04
2.764100000000000001e+00 2.970627648595118808e+04
2.797000000000000153e+00 3.591016104829566029e+04
2.829899999999999860e+00 4.231482445744192955e+04
2.862800000000000011e+00 4.809384514587093872e+04
2.895700000000000163e+00 5.345273808618491603e+04
2.928599999999999870e+00 5.888786200491272757e+04
2.961500000000000021e+00 6.528316715721839864e+04
2.994400000000000173e+00 7.373358802323440614e+04
3.027400000000000091e+00 8.284899633810807427e+04
3.060299999999999798e+00 8.924957389022407006e+04
3.093199999999999950e+00 9.195342643087009492e+04
3.126100000000000101e+00 9.315951673777932592e+04
3.158999999999999808e+00 9.566375788531509170e+04
3.191899999999999959e+00 1.003373822017365455e+05
3.224800000000000111e+00 1.067565256429750880e+05
3.257699999999999818e+00 1.135945154963373352e+05
3.290599999999999969e+00 1.189205056885141530e+05
3.323500000000000121e+00 1.227435248901079176e+05
3.356399999999999828e+00 1.266166117358112824e+05
3.389299999999999979e+00 1.332977410411920282e+05
3.422200000000000131e+00 1.446563833692719636e+05
3.455099999999999838e+00 1.599726468341000145e+05
3.487999999999999989e+00 1.768164354224124399e+05
3.520900000000000141e+00 1.921402233263354865e+05
3.553799999999999848e+00 2.039896597858130117e+05
3.586800000000000210e+00 2.132820239329197793e+05
3.619699999999999918e+00 2.203369428929463611e+05
3.652600000000000069e+00 2.238878033623852534e+05
3.685500000000000220e+00 2.248752597492288623e+05
3.718399999999999928e+00 2.248778038220284216e+05
3.751300000000000079e+00 2.236822119195251144e+05
3.784199999999999786e+00 2.210285801563014393e+05
3.817099999999999937e+00 2.188627576374732016e+05
3.850000000000000089e+00 2.200513811569280224e+05
3.882899999999999796e+00 2.261777519385208143e+05
3.915799999999999947e+00 2.367167813744193118e+05
3.948700000000000099e+00 2.503904163029298070e+05
3.981599999999999806e+00 2.656074390677277115e+05
4.014499999999999957e+00 2.802861455569007085e+05
4.047399999999999665e+00 2.931266510938512511e+05
4.080300000000000260e+00 3.042439427251964808e+05
4.113299999999999734e+00 3.135709617749097524e+05
4.146200000000000330e+00 3.195853842678033980e+05
4.179100000000000037e+00 3.205675604912472772e+05
4.211999999999999744e+00 3.176534483580153319e+05
4.244900000000000340e+00 3.141367858998502488e+05
4.277800000000000047e+00 3.115078676340396050e+05
4.310699999999999754e+00 3.089030801441406365e+05
4.343600000000000350e+00 3.056791747200496029e+05
4.376500000000000057e+00 3.022786576539115049e+05
4.409399999999999764e+00 2.995776362930884352e+05
4.442300000000000360e+00 2.985763749284275691e+05
4.475200000000000067e+00 2.999463632501343382e+05
4.508099999999999774e+00 3.040384301641420461e+05
4.541000000000000369e+00 3.109466434108029353e+05
4.573900000000000077e+00 3.207793262339241337e+05
4.606799999999999784e+00 3.331999960417127004e+05
4.639700000000000379e+00 3.472983555275185499e+05
4.672699999999999854e+00 3.624520188957394566e+05
4.705599999999999561e+00 3.782346220527673722e+05
4.738500000000000156e+00 3.930066722622951493e+05
4.771399999999999864e+00 4.046147314470930141e+05
4.804299999999999571e+00 4.132681541263095569e+05
4.837200000000000166e+00 4.203560988278936711e+05
4.870099999999999874e+00 4.262672125698249438e+05
4.902999999999999581e+00 4.300839673028154066e+05
4.935900000000000176e+00 4.313591274171058903e+05
4.968799999999999883e+00 4.305155369268096983e+05
5.001699999999999591e+00 4.282634599386797636e+05
5.034600000000000186e+00 4.260808146358451340e+05
5.067499999999999893e+00 4.248230154470473644e+05
5.100399999999999601e+00 4.235509337757655303e+05
5.133300000000000196e+00 4.215567368358458043e+05
5.166199999999999903e+00 4.201006573418264743e+05
5.199200000000000266e+00 4.209471295405612909e+05
5.232099999999999973e+00 4.245776113236694946e+05
5.264999999999999680e+00 4.303386154083493166e+05
5.297900000000000276e+00 4.370453469983671093e+05
5.330799999999999983e+00 4.435830040504451608e+05
5.363699999999999690e+00 4.493996695255272789e+05
5.396600000000000286e+00 4.537531818384939106e+05
5.429499999999999993e+00 4.558416941486544674e+05
5.462399999999999700e+00 4.559924150769943371e+05
5.495300000000000296e+00 4.555375053564794944e+05
5.528200000000000003e+00 4.548611266306929174e+05
5.561099999999999710e+00 4.538009480900093331e+05
5.594000000000000306e+00 4.527358410881907330e+05
5.626900000000000013e+00 4.520032253777927253e+05
5.659799999999999720e+00 4.513626846308403765e+05
5.692700000000000315e+00 4.502683429186170688e+05
5.725600000000000023e+00 4.481241241218603100e+05
5.758600000000000385e+00 4.446041966348673450e+05
5.791500000000000092e+00 4.399970413244253723e+05
5.824399999999999800e+00 4.351195070187564706e+05
5.857300000000000395e+00 4.307016706061488949e+05
5.890200000000000102e+00 4.266216035344449338e+05
5.923099999999999810e+00 4.220703180199714843e+05
5.956000000000000405e+00 4.164602828699108795e+05
5.988900000000000112e+00 4.103635831391997635e+05
6.021799999999999820e+00 4.049674601623336785e+05
6.054700000000000415e+00 4.006054265551368590e+05
6.087600000000000122e+00 3.966352222722189617e+05
6.120499999999999829e+00 3.928100632387205842e+05
6.153400000000000425e+00 3.894746504452467780e+05
6.186300000000000132e+00 3.868613383393178228e+05
6.219199999999999839e+00 3.847401198410259094e+05
6.252100000000000435e+00 3.828137177989519550e+05
6.285000000000000142e+00 3.811254670275700046e+05
6.317999999999999616e+00 3.796996832486030762e+05
6.350900000000000212e+00 3.781115076252031722e+05
6.383799999999999919e+00 3.761408730775526492e+05
6.416699999999999626e+00 3.744055801672236412e+05
6.449600000000000222e+00 3.736137611312997178e+05
6.482499999999999929e+00 3.739971924622521619e+05
6.515399999999999636e+00 3.752303542032316909e+05
6.548300000000000232e+00 3.768870746514535858e+05
6.581199999999999939e+00 3.785054171882505179e+05
6.614099999999999646e+00 3.797728417237607064e+05
6.647000000000000242e+00 3.805934867941763951e+05
6.679899999999999949e+00 3.810014821444259142e+05
6.712799999999999656e+00 3.812838352672983892e+05
6.745700000000000252e+00 3.819145656431881362e+05
6.778599999999999959e+00 3.831629399689915008e+05
6.811499999999999666e+00 3.852802274951029685e+05
6.844500000000000028e+00 3.881606027118210332e+05
6.877399999999999736e+00 3.908917709647449665e+05
6.910300000000000331e+00 3.924238100210601115e+05
6.943200000000000038e+00 3.923933789497151156e+05
6.976099999999999746e+00 3.913390815534129506e+05
7.009000000000000341e+00 3.901057067327871337e+05
7.041900000000000048e+00 3.890176976818648400e+05
7.074799999999999756e+00 3.878272361032139743e+05
7.107700000000000351e+00 3.862113451858249027e+05
7.140600000000000058e+00 3.841453056591564673e+05
7.173499999999999766e+00 3.816984137696900289e+05
7.206400000000000361e+00 3.788531278276143130e+05
7.239300000000000068e+00 3.755491384554801625e+05
7.272199999999999775e+00 3.718266116980717634e+05
7.305100000000000371e+00 3.681002471337482566e+05
7.338000000000000078e+00 3.649761409730829182e+05
7.370899999999999785e+00 3.630972776217658538e+05
7.403900000000000148e+00 3.630788986232841271e+05
7.436799999999999855e+00 3.652638432612374309e+05
7.469699999999999562e+00 3.693249246813838254e+05
7.502600000000000158e+00 3.744187149217242841e+05
7.535499999999999865e+00 3.796885060511271004e+05
7.568399999999999572e+00 3.846638593045584275e+05
7.601300000000000168e+00 3.894298550040249247e+05
7.634199999999999875e+00 3.939623629847088596e+05
7.667099999999999582e+00 3.977853337927141692e+05
7.700000000000000178e+00 4.005484840226268279e+05
7.732899999999999885e+00 4.024545313558215857e+05
7.765799999999999592e+00 4.040733420153852785e+05
7.798700000000000188e+00 4.059453228582525626e+05
7.831599999999999895e+00 4.087137346146461787e+05
7.864499999999999602e+00 4.130198824275191873e+05
7.897400000000000198e+00 4.192087201454406022e+05
7.930299999999999905e+00 4.273811325295702554e+05
7.963300000000000267e+00 4.374250721779362066e+05
7.996199999999999974e+00 4.489415511407683371e+05
8.029099999999999682e+00 4.617022002002539230e+05
8.061999999999999389e+00 4.754275098301667604e+05
8.094900000000000873e+00 4.900833772133806488e+05
8.127800000000000580e+00 5.059423373479633010e+05
8.160700000000000287e+00 5.225849410522342660e+05
8.193599999999999994e+00 5.387322577331202338e+05
8.226499999999999702e+00 5.529804346194838872e+05
8.259399999999999409e+00 5.643813454423358198e+05
8.292299999999999116e+00 5.723300952632783446e+05
8.325200000000000600e+00 5.766862387322728755e+05
8.358100000000000307e+00 5.779231609077106696e+05
8.391000000000000014e+00 5.768756560000982136e+05
8.423899999999999721e+00 5.745445606674762676e+05
8.456799999999999429e+00 5.720003525321771158e+05
8.489800000000000679e+00 5.700470957016312750e+05
8.522700000000000387e+00 5.689927936136132339e+05
8.555600000000000094e+00 5.691058351967020426e+05
8.588499999999999801e+00 5.705840418608470354e+05
8.621399999999999508e+00 5.732443909236271866e+05
8.654299999999999216e+00 5.767958962257432286e+05
8.687200000000000699e+00 5.812284027717032004e+05
8.720100000000000406e+00 5.865183574656168930e+05
8.753000000000000114e+00 5.924934917397929821e+05
8.785899999999999821e+00 5.991055566754591418e+05
8.818799999999999528e+00 6.062440612611330580e+05
8.851699999999999235e+00 6.134715266016701935e+05
8.884600000000000719e+00 6.204333020925358869e+05
8.917500000000000426e+00 6.271741338452787604e+05
8.950400000000000134e+00 6.339027314616665244e+05
8.983299999999999841e+00 6.406520919444907922e+05
9.016199999999999548e+00 6.472468158511540387e+05
9.049200000000000799e+00 6.537408975083264522e+05
9.082100000000000506e+00 6.603042542920248816e+05
9.115000000000000213e+00 6.669727649777409388e+05
9.147899999999999920e+00 6.736029574168585241e+05
9.180799999999999628e+00 6.799695892104473896e+05
9.213699999999999335e+00 6.860212380804907298e+05
9.246600000000000819e+00 6.918471604256397113e+05
9.279500000000000526e+00 6.974142594850616297e+05
9.312400000000000233e+00 7.022463517585764639e+05
9.345299999999999940e+00 7.059141759801934240e+05
9.378199999999999648e+00 7.084740582680504303e+05
9.411099999999999355e+00 7.110484563511026790e+05
9.444000000000000838e+00 7.151619958890879061e+05
9.476900000000000546e+00 7.218988309797588736e+05
9.509800000000000253e+00 7.315019471626591403e+05
9.542699999999999960e+00 7.437717284577434184e+05
9.575699999999999434e+00 7.583171169710853137e+05
9.608599999999999142e+00 7.744054136804541340e+05
9.641500000000000625e+00 7.909703232755899662e+05
9.674400000000000333e+00 8.071097089199423790e+05
9.707300000000000040e+00 8.222350729914577678e+05
9.740199999999999747e+00 8.358295661041314015e+05
9.773099999999999454e+00 8.474253576533736195e+05
9.805999999999999162e+00 8.566287630785545334e+05
9.838900000000000645e+00 8.632418464552751975e+05
9.871800000000000352e+00 8.675377004441451281e+05
9.904700000000000060e+00 8.702359390420272248e+05
9.937599999999999767e+00 8.722355263497139094e+05
9.970499999999999474e+00 8.742436520796417026e+05
1.000339999999999918e+01 8.765373396793541033e+05
1.003630000000000067e+01 8.788348829854093492e+05
1.006920000000000037e+01 8.805301227324960055e+05
1.010210000000000008e+01 8.814662419238658622e+05
1.013509999999999955e+01 8.823337656993387500e+05
1.016799999999999926e+01 8.841072784688608954e+05
1.020090000000000074e+01 8.873567598148107063e+05
1.023380000000000045e+01 8.924562753544549923e+05
1.026670000000000016e+01 8.996295177881915588e+05
1.029959999999999987e+01 9.083182650657236809e+05
1.033249999999999957e+01 9.175127296829932602e+05
1.036539999999999928e+01 9.269364545543720014e+05
1.039830000000000076e+01 9.369880079000751721e+05
1.043120000000000047e+01 9.476045366364662768e+05
1.046410000000000018e+01 9.583280555532755097e+05
1.049699999999999989e+01 9.689682013421511510e+05
1.052989999999999959e+01 9.798815493789609754e+05
1.056279999999999930e+01 9.913701981271933764e+05
1.059570000000000078e+01 1.003204891862136894e+06
1.062860000000000049e+01 1.015156797447756631e+06
1.066150000000000020e+01 1.027177183431923389e+06
1.069449999999999967e+01 1.038702551742795156e+06
1.072739999999999938e+01 1.047852456486428040e+06
1.076030000000000086e+01 1.052557146931321127e+06
1.079320000000000057e+01 1.053465955362086184e+06
1.082610000000000028e+01 1.053057948850567453e+06
1.085899999999999999e+01 1.053237389940854395e+06
1.089189999999999969e+01 1.054902804179313593e+06
1.092479999999999940e+01 1.058105977504284587e+06
1.095770000000000088e+01 1.062013174111280590e+06
1.099060000000000059e+01 1.065425109642434167e+06
1.102350000000000030e+01 1.067665277648698073e+06
1.105640000000000001e+01 1.069007665855858708e+06
1.108929999999999971e+01 1.070049095082196640e+06
1.112219999999999942e+01 1.070648824255484156e+06
1.115509999999999913e+01 1.070415424095713533e+06
1.118800000000000061e+01 1.069614547212918987e+06
1.122100000000000009e+01 1.069145673739340389e+06
1.125389999999999979e+01 1.069352856410591165e+06
1.128679999999999950e+01 1.069555268473172560e+06
1.131969999999999921e+01 1.068599169377711136e+06
1.135260000000000069e+01 1.065711286243211944e+06
1.138550000000000040e+01 1.061420789507006295e+06
1.141840000000000011e+01 1.057058503875543829e+06
1.145129999999999981e+01 1.053621831812081393e+06
1.148419999999999952e+01 1.051375489704759559e+06
1.151709999999999923e+01 1.050512234709553886e+06
1.155000000000000071e+01 1.051046938629955053e+06
1.158290000000000042e+01 1.052327520683407318e+06
1.161580000000000013e+01 1.053184951620983658e+06
1.164869999999999983e+01 1.052744547448590631e+06
1.168159999999999954e+01 1.051424789046983467e+06
1.171449999999999925e+01 1.050113958978299517e+06
1.174740000000000073e+01 1.049042918802830158e+06
1.178040000000000020e+01 1.048322508537894930e+06
1.181329999999999991e+01 1.047956902307808632e+06
1.184619999999999962e+01 1.047629636871533119e+06
1.187909999999999933e+01 1.047272070080438978e+06
1.191200000000000081e+01 1.046905228330104379e+06
1.194490000000000052e+01 1.046631282246014220e+06
1.197780000000000022e+01 1.047022923940104432e+06
1.201069999999999993e+01 1.048627703268814366e+06
1.204359999999999964e+01 1.051412758938173298e+06
1.207649999999999935e+01 1.054662272278831806e+06
1.210940000000000083e+01 1.057668664790573763e+06
1.214230000000000054e+01 1.060239393001804827e+06
1.217520000000000024e+01 1.062976565379652660e+06
1.220809999999999995e+01 1.066715294069635915e+06
1.224099999999999966e+01 1.071839557712952839e+06
1.227389999999999937e+01 1.077668654994897079e+06
1.230680000000000085e+01 1.083905510811648797e+06
1.233980000000000032e+01 1.090709100697995862e+06
1.237270000000000003e+01 1.098229796054123202e+06
1.240559999999999974e+01 1.106166711225305684e+06
1.243849999999999945e+01 1.113835188247449696e+06
1.247139999999999915e+01 1.121074226248451276e+06
1.250430000000000064e+01 1.128052286587180104e+06
1.253720000000000034e+01 1.134631351133112330e+06
1.257010000000000005e+01 1.140496180977419950e+06
1.260299999999999976e+01 1.145399951299053850e+06
1.263589999999999947e+01 1.148890447948401328e+06
1.266879999999999917e+01 1.150480237265811535e+06
1.270170000000000066e+01 1.150296386454629712e+06
1.273460000000000036e+01 1.149770552479329519e+06
1.276750000000000007e+01 1.150771014623518335e+06
1.280039999999999978e+01 1.154230365727814613e+06
1.283329999999999949e+01 1.159617323791592382e+06
1.286630000000000074e+01 1.165497262399404310e+06
1.289920000000000044e+01 1.170490946331158048e+06
1.293210000000000015e+01 1.173864795551927295e+06
1.296499999999999986e+01 1.176078963323191507e+06
1.299789999999999957e+01 1.178272649258050835e+06
1.303079999999999927e+01 1.181286660260120174e+06
1.306370000000000076e+01 1.184672342449672287e+06
1.309660000000000046e+01 1.187055752613272052e+06
