# energy(eV) alpha
0.000000000000000000e+00 0.000000000000000000e+00
2.730000000000000135e-02 1.465995409453490828e+00
5.449999999999999983e-02 5.814704728040533510e+00
8.179999999999999771e-02 1.306067342749714122e+01
1.089999999999999997e-01 2.325062535694048549e+01
1.363000000000000045e-01 3.638033129068398353e+01
1.635000000000000064e-01 5.262474544390000375e+01
1.907999999999999974e-01 7.188522431029170434e+01
2.179999999999999993e-01 9.408469142322975642e+01
2.452999999999999903e-01 1.194665406994216426e+02
2.725000000000000200e-01 1.479862528090576461e+02
2.998000000000000109e-01 1.800018066427900578e+02
3.270000000000000129e-01 2.152713322405289773e+02
3.543000000000000038e-01 2.539649109891413730e+02
3.815000000000000058e-01 2.967796946683731107e+02
4.087999999999999967e-01 3.423723194090317179e+02
4.360999999999999877e-01 3.923541624682034694e+02
4.632999999999999896e-01 4.461889717678803891e+02
4.905999999999999805e-01 5.041552677967553677e+02
5.178000000000000380e-01 5.664947235646931176e+02
5.451000000000000290e-01 6.335611235523000460e+02
5.723000000000000309e-01 7.048687953585071000e+02
5.996000000000000218e-01 7.815604842640279912e+02
6.268000000000000238e-01 8.631333372172578038e+02
6.541000000000000147e-01 9.504303501746852589e+02
6.813000000000000167e-01 1.043811784711539758e+03
7.086000000000000076e-01 1.143310299899228539e+03
7.358000000000000096e-01 1.248771573350494236e+03
7.631000000000000005e-01 1.361733636128029957e+03
7.903999999999999915e-01 1.482283330880579342e+03
8.175999999999999934e-01 1.611027885585152490e+03
8.448999999999999844e-01 1.747498776146075897e+03
8.720999999999999863e-01 1.893821565333018725e+03
8.993999999999999773e-01 2.050796759364961872e+03
9.265999999999999792e-01 2.217710134949850271e+03
9.538999999999999702e-01 2.396594739537835721e+03
9.810999999999999721e-01 2.587986568434419041e+03
1.008399999999999963e+00 2.795510965977158776e+03
1.035600000000000076e+00 3.016433526622069621e+03
1.062899999999999956e+00 3.255191112990458350e+03
1.090100000000000069e+00 3.513913549442087515e+03
1.117399999999999949e+00 3.793900334794705941e+03
1.144600000000000062e+00 4.096600349619411645e+03
1.171899999999999942e+00 4.427191153161093098e+03
1.199200000000000044e+00 4.790033713982135851e+03
1.226399999999999935e+00 5.188906442488004359e+03
1.253700000000000037e+00 5.628024484823942657e+03
1.280899999999999928e+00 6.115000236050702370e+03
1.308200000000000029e+00 6.662859653093788438e+03
1.335399999999999920e+00 7.279890462654735529e+03
1.362700000000000022e+00 7.983487272452855905e+03
1.389899999999999913e+00 8.794687725609843255e+03
1.417200000000000015e+00 9.743862219405935321e+03
1.444399999999999906e+00 1.087226892539436449e+04
1.471700000000000008e+00 1.224017273707044114e+04
1.498899999999999899e+00 1.392187555411448011e+04
1.526200000000000001e+00 1.601411689867329005e+04
1.553500000000000103e+00 1.858965131976634802e+04
1.580699999999999994e+00 2.160602974686220477e+04
1.608000000000000096e+00 2.486431629262279603e+04
1.635199999999999987e+00 2.817390786968694010e+04
1.662500000000000089e+00 3.152988526117764559e+04
1.689699999999999980e+00 3.492104919838046771e+04
1.717000000000000082e+00 3.844868753436441330e+04
1.744199999999999973e+00 4.263144659528311604e+04
1.771500000000000075e+00 4.793307763392748166e+04
1.798699999999999966e+00 5.415474739340649103e+04
1.826000000000000068e+00 6.075011185411790211e+04
1.853199999999999958e+00 6.732289911019822466e+04
1.880500000000000060e+00 7.372063880972306652e+04
1.907699999999999951e+00 8.006018980694677157e+04
1.935000000000000053e+00 8.669098030592755822e+04
1.962299999999999933e+00 9.391880310705161537e+04
1.989500000000000046e+00 1.013803515283641900e+05
2.016799999999999926e+00 1.083305725161324954e+05
2.044000000000000039e+00 1.149732912648338097e+05
2.071299999999999919e+00 1.229454267184889177e+05
2.098500000000000032e+00 1.337462109855695744e+05
2.125799999999999912e+00 1.473397068069744855e+05
2.153000000000000025e+00 1.625900297341049009e+05
2.180299999999999905e+00 1.780958778107694816e+05
2.207500000000000018e+00 1.920063291466603114e+05
2.234799999999999898e+00 2.030261592303913494e+05
2.262000000000000011e+00 2.114721295308622066e+05
2.289299999999999891e+00 2.187812438876983651e+05
2.316600000000000215e+00 2.262990628359846887e+05
2.343799999999999883e+00 2.349052662947896752e+05
2.371100000000000207e+00 2.454341537181438180e+05
2.398299999999999876e+00 2.590882896789863880e+05
2.425600000000000200e+00 2.770117860382595682e+05
2.452799999999999869e+00 2.981631881956778816e+05
2.480100000000000193e+00 3.188382033660216257e+05
2.507299999999999862e+00 3.354315759647562518e+05
2.534600000000000186e+00 3.469833209152751369e+05
2.561799999999999855e+00 3.540640998943097657e+05
2.589100000000000179e+00 3.563945966989191365e+05
2.616299999999999848e+00 3.537069424058261211e+05
2.643600000000000172e+00 3.488179899876673589e+05
2.670799999999999841e+00 3.462442171201697201e+05
2.698100000000000165e+00 3.485978004612235818e+05
2.725400000000000045e+00 3.556652374412003555e+05
2.752600000000000158e+00 3.656717454426189652e+05
2.779900000000000038e+00 3.776970043867859058e+05
2.807100000000000151e+00 3.930542899392453837e+05
2.834400000000000031e+00 4.120919050518433796e+05
2.861600000000000144e+00 4.307982997558636125e+05
2.888900000000000023e+00 4.439599020980804344e+05
2.916100000000000136e+00 4.503439098064251593e+05
2.943400000000000016e+00 4.524309374022963457e+05
2.970600000000000129e+00 4.528922646033791243e+05
2.997900000000000009e+00 4.536594918526882539e+05
3.025100000000000122e+00 4.555983642744015087e+05
3.052400000000000002e+00 4.582872552380991983e+05
3.079699999999999882e+00 4.606450859650287312e+05
3.106899999999999995e+00 4.619828759093942936e+05
3.134199999999999875e+00 4.620818382690549479e+05
3.161399999999999988e+00 4.609717671215675655e+05
3.188699999999999868e+00 4.592309849829876912e+05
3.215899999999999981e+00 4.575317051359212492e+05
3.243199999999999861e+00 4.558980412939430680e+05
3.270399999999999974e+00 4.534215037279187818e+05
3.297699999999999854e+00 4.494026772433578735e+05
3.324899999999999967e+00 4.440009250461812480e+05
3.352199999999999847e+00 4.381093551137118484e+05
3.379399999999999959e+00 4.324975595111116418e+05
3.406699999999999839e+00 4.277095265680723242e+05
3.433899999999999952e+00 4.240269373289465439e+05
3.461199999999999832e+00 4.216570082851718762e+05
3.488500000000000156e+00 4.208661656406552065e+05
3.515699999999999825e+00 4.219115787532222457e+05
3.543000000000000149e+00 4.247170767230647034e+05
3.570199999999999818e+00 4.286955874809676898e+05
3.597500000000000142e+00 4.330560000808092882e+05
3.624699999999999811e+00 4.372446646790332743e+05
3.652000000000000135e+00 4.413806276846178807e+05
3.679199999999999804e+00 4.458581501090556849e+05
3.706500000000000128e+00 4.505916578474351554e+05
3.733699999999999797e+00 4.548292643993892707e+05
3.761000000000000121e+00 4.579691795470708748e+05
3.788199999999999790e+00 4.599065400526452577e+05
3.815500000000000114e+00 4.607578703753189184e+05
3.842699999999999783e+00 4.603242910373109626e+05
3.870000000000000107e+00 4.579933643673766637e+05
3.897299999999999986e+00 4.531811178574130754e+05
3.924500000000000099e+00 4.463890243854594883e+05
3.951799999999999979e+00 4.394330666245383909e+05
3.979000000000000092e+00 4.341188642263907823e+05
4.006300000000000416e+00 4.308135216481095413e+05
4.033500000000000085e+00 4.279818600033550174e+05
4.060800000000000409e+00 4.237252350279828534e+05
4.088000000000000078e+00 4.172022947326239664e+05
4.115300000000000402e+00 4.087293760628293967e+05
4.142500000000000071e+00 3.991317065908872173e+05
4.169800000000000395e+00 3.896092500582914799e+05
4.197000000000000064e+00 3.810467198767811060e+05
4.224300000000000388e+00 3.734342818387355655e+05
4.251599999999999824e+00 3.659577326140059158e+05
4.278800000000000381e+00 3.577975402806584025e+05
4.306099999999999817e+00 3.490481660270846332e+05
4.333300000000000374e+00 3.407405442817562143e+05
4.360599999999999810e+00 3.339749941492642392e+05
4.387800000000000367e+00 3.290361032409555628e+05
4.415099999999999802e+00 3.255417065661536762e+05
4.442300000000000360e+00 3.230318909592972486e+05
4.469599999999999795e+00 3.214161457992581418e+05
4.496800000000000352e+00 3.208433255962504190e+05
4.524099999999999788e+00 3.217568481934860465e+05
4.551300000000000345e+00 3.246919128729043296e+05
4.578599999999999781e+00 3.299498747216127813e+05
4.605800000000000338e+00 3.375777069650554331e+05
4.633099999999999774e+00 3.472131070617054356e+05
4.660400000000000098e+00 3.576207791433912353e+05
4.687599999999999767e+00 3.669325378731311066e+05
4.714900000000000091e+00 3.737122281488846056e+05
4.742099999999999760e+00 3.777364936132331495e+05
4.769400000000000084e+00 3.799846231399520766e+05
4.796599999999999753e+00 3.817577097219341085e+05
4.823900000000000077e+00 3.838686423501382233e+05
4.851099999999999746e+00 3.864879097515768954e+05
4.878400000000000070e+00 3.898089813221403747e+05
4.905599999999999739e+00 3.939193733009348507e+05
4.932900000000000063e+00 3.985535741815877263e+05
4.960099999999999731e+00 4.030728842111162376e+05
4.987400000000000055e+00 4.065252122742821230e+05
5.014700000000000379e+00 4.075443204378050286e+05
5.041900000000000048e+00 4.053175895530988346e+05
5.069200000000000372e+00 4.004370257009487832e+05
5.096400000000000041e+00 3.943730779600829119e+05
5.123700000000000365e+00 3.883448369615760166e+05
5.150900000000000034e+00 3.827536463184390450e+05
5.178200000000000358e+00 3.770905966770264786e+05
5.205400000000000027e+00 3.704312429214090225e+05
5.232700000000000351e+00 3.623427010846136836e+05
5.259900000000000020e+00 3.533948751333426335e+05
5.287200000000000344e+00 3.448473262995466357e+05
5.314400000000000013e+00 3.378272920020825695e+05
5.341700000000000337e+00 3.327486150338200969e+05
5.368900000000000006e+00 3.292313937203636742e+05
5.396200000000000330e+00 3.265341806871130248e+05
5.423499999999999766e+00 3.241638323338196496e+05
5.450700000000000323e+00 3.221986499719097628e+05
5.477999999999999758e+00 3.211244260016313638e+05
5.505200000000000315e+00 3.211091253475165577e+05
5.532499999999999751e+00 3.215767041743520531e+05
5.559700000000000308e+00 3.215050359850896057e+05
5.586999999999999744e+00 3.205067442833920941e+05
5.614200000000000301e+00 3.189635115649854415e+05
5.641499999999999737e+00 3.175891519580527674e+05
5.668700000000000294e+00 3.171947292077709571e+05
5.695999999999999730e+00 3.186907762405066169e+05
5.723200000000000287e+00 3.225677295529117691e+05
5.750499999999999723e+00 3.288263144680915284e+05
5.777800000000000047e+00 3.372434619949017651e+05
5.804999999999999716e+00 3.474286467907073675e+05
5.832300000000000040e+00 3.586753893898787210e+05
5.859499999999999709e+00 3.700209353408144088e+05
5.886800000000000033e+00 3.808567019287470030e+05
5.913999999999999702e+00 3.911609653523191810e+05
5.941300000000000026e+00 4.010883057767176069e+05
5.968499999999999694e+00 4.106583875793943298e+05
5.995800000000000018e+00 4.200920883112677839e+05
6.022999999999999687e+00 4.300205845161608304e+05
6.050300000000000011e+00 4.413052899756310508e+05
6.077499999999999680e+00 4.546683528530137264e+05
6.104800000000000004e+00 4.706059916592945228e+05
6.131999999999999673e+00 4.889395744384283898e+05
6.159299999999999997e+00 5.086227273286839481e+05
6.186600000000000321e+00 5.282040094309982378e+05
6.213799999999999990e+00 5.467544793856391916e+05
6.241100000000000314e+00 5.641477574132210575e+05
6.268299999999999983e+00 5.804252373024143744e+05
6.295600000000000307e+00 5.953708928555255989e+05
6.322799999999999976e+00 6.087407659800284309e+05
6.350100000000000300e+00 6.206390112072315533e+05
6.377299999999999969e+00 6.312294187991082435e+05
6.404600000000000293e+00 6.407234103318586713e+05
6.431799999999999962e+00 6.496015228997418890e+05
6.459100000000000286e+00 6.589215126311752247e+05
6.486299999999999955e+00 6.697467818381880643e+05
6.513600000000000279e+00 6.824375614569546888e+05
6.540899999999999714e+00 6.963746279584610602e+05
6.568100000000000271e+00 7.106541174444729695e+05
6.595399999999999707e+00 7.246935016743938904e+05
6.622600000000000264e+00 7.382237900367554976e+05
6.649899999999999700e+00 7.511615488680491690e+05
6.677100000000000257e+00 7.634645265001540538e+05
6.704399999999999693e+00 7.752039937164323637e+05
6.731600000000000250e+00 7.863987088274215348e+05
6.758899999999999686e+00 7.966992455208060564e+05
6.786100000000000243e+00 8.051362263712842250e+05
6.813399999999999679e+00 8.107464790973907802e+05
6.840600000000000236e+00 8.131893040831172839e+05
6.867899999999999672e+00 8.131123859834519681e+05
6.895100000000000229e+00 8.119325029713278636e+05
6.922399999999999665e+00 8.112032056498028105e+05
6.949699999999999989e+00 8.115571127490859944e+05
6.976899999999999658e+00 8.126198604497592896e+05
7.004199999999999982e+00 8.138444009259112645e+05
7.031399999999999650e+00 8.151465502046231413e+05
7.058699999999999974e+00 8.170343366402083775e+05
7.085899999999999643e+00 8.200308667712288443e+05
7.113199999999999967e+00 8.241886035819397075e+05
7.140399999999999636e+00 8.291855552940906491e+05
7.167699999999999960e+00 8.346794008805747144e+05
7.194899999999999629e+00 8.404450284767416306e+05
7.222199999999999953e+00 8.464972364235676359e+05
7.249399999999999622e+00 8.528852984705765266e+05
7.276699999999999946e+00 8.592969727996750735e+05
7.303899999999999615e+00 8.648433715229798108e+05
7.331199999999999939e+00 8.686673122476493008e+05
7.358500000000000263e+00 8.707788608664302155e+05
7.385699999999999932e+00 8.720772559465895174e+05
7.413000000000000256e+00 8.732219993241326883e+05
7.440199999999999925e+00 8.742500193903296022e+05
7.467500000000000249e+00 8.751620149984959280e+05
7.494699999999999918e+00 8.764705036695899907e+05
7.522000000000000242e+00 8.788888043371216627e+05
7.549199999999999910e+00 8.826876217058291659e+05
7.576500000000000234e+00 8.879621820658992510e+05
7.603699999999999903e+00 8.947900313114767196e+05
7.631000000000000227e+00 9.027805061015086249e+05
7.658199999999999896e+00 9.104702795703172451e+05
7.685500000000000220e+00 9.163500427902311785e+05
7.712799999999999656e+00 9.201265080229104497e+05
7.740000000000000213e+00 9.226328754937906051e+05
7.767299999999999649e+00 9.249441835648323176e+05
7.794500000000000206e+00 9.278933691041637212e+05
7.821799999999999642e+00 9.318466079543534433e+05
7.849000000000000199e+00 9.364047605250591878e+05
7.876299999999999635e+00 9.407466087609659880e+05
7.903500000000000192e+00 9.445363239596200874e+05
7.930799999999999628e+00 9.480819864631243981e+05
7.958000000000000185e+00 9.517800592985979747e+05
7.985299999999999621e+00 9.555267677540616132e+05
8.012499999999999289e+00 9.588053645805132110e+05
8.039799999999999613e+00 9.614580524208514253e+05
8.067000000000000171e+00 9.637726782031393377e+05
8.094300000000000495e+00 9.660341133394809440e+05
8.121600000000000819e+00 9.681812725882000523e+05
8.148799999999999599e+00 9.703604529902415816e+05
8.176099999999999923e+00 9.729567699576565064e+05
8.203300000000000480e+00 9.759947523343916982e+05
8.230600000000000804e+00 9.790917640209159581e+05
8.257799999999999585e+00 9.817004880182032939e+05
8.285099999999999909e+00 9.834758538142511388e+05
8.312300000000000466e+00 9.842592895836716052e+05
8.339600000000000790e+00 9.843946115517865401e+05
8.366799999999999571e+00 9.848247576093509560e+05
8.394099999999999895e+00 9.868725641510410933e+05
8.421300000000000452e+00 9.913787353134495206e+05
8.448600000000000776e+00 9.982825584164757747e+05
8.475899999999999324e+00 1.006948537055308931e+06
8.503099999999999881e+00 1.016648493199107237e+06
8.530400000000000205e+00 1.026586217543872888e+06
8.557600000000000762e+00 1.035139278478032909e+06
8.584899999999999309e+00 1.040441349302347167e+06
8.612099999999999866e+00 1.041598549780861940e+06
8.639400000000000190e+00 1.039553540180083830e+06
8.666600000000000747e+00 1.036087477955449838e+06
8.693899999999999295e+00 1.032571123465657118e+06
8.721099999999999852e+00 1.029264752777331858e+06
8.748400000000000176e+00 1.025910873959775898e+06
8.775600000000000733e+00 1.022325029019840178e+06
8.802899999999999281e+00 1.018805118944256566e+06
8.830099999999999838e+00 1.016064245403141947e+06
8.857400000000000162e+00 1.014666389357028529e+06
8.884700000000000486e+00 1.014344316584248678e+06
8.911899999999999267e+00 1.014367885705558816e+06
8.939199999999999591e+00 1.014144874345469871e+06
8.966400000000000148e+00 1.013380982861223165e+06
8.993700000000000472e+00 1.012092221957571339e+06
9.020899999999999253e+00 1.010810746304308297e+06
9.048199999999999577e+00 1.010361063967584167e+06
9.075400000000000134e+00 1.010817968029768672e+06
9.102700000000000458e+00 1.011433132799412939e+06
9.129899999999999238e+00 1.011558052236727555e+06
9.157199999999999562e+00 1.011188060251338175e+06
9.184400000000000119e+00 1.010643324265954900e+06
9.211700000000000443e+00 1.010270613840659382e+06
9.239000000000000767e+00 1.010113436725472915e+06
9.266199999999999548e+00 1.009730331619175966e+06
9.293499999999999872e+00 1.008556537716549356e+06
9.320700000000000429e+00 1.006029345100080129e+06
9.348000000000000753e+00 1.001471666937650763e+06
9.375199999999999534e+00 9.942255479203156428e+05
9.402499999999999858e+00 9.843386271563154878e+05
9.429700000000000415e+00 9.726728968619582010e+05
9.457000000000000739e+00 9.606086505338128190e+05
9.484199999999999520e+00 9.493080862528289435e+05
9.511499999999999844e+00 9.398552813445879146e+05
9.538700000000000401e+00 9.335639332526453072e+05
9.566000000000000725e+00 9.319108676935009426e+05
9.593199999999999505e+00 9.356833287018574774e+05
9.620499999999999829e+00 9.445167122705037473e+05
9.647800000000000153e+00 9.570631175834949827e+05
9.675000000000000711e+00 9.716712074229968712e+05
9.702299999999999258e+00 9.868518512658688705e+05
9.729499999999999815e+00 1.001282555578413070e+06
9.756800000000000139e+00 1.013597258513522334e+06
9.784000000000000696e+00 1.022259582441458246e+06
9.811299999999999244e+00 1.026063545759424334e+06
9.838499999999999801e+00 1.024707316024263971e+06
9.865800000000000125e+00 1.018780920120030292e+06
9.893000000000000682e+00 1.009613108122749138e+06
9.920299999999999230e+00 9.988781400279738009e+05
9.947499999999999787e+00 9.877587832021920476e+05
9.974800000000000111e+00 9.770605328184287064e+05
1.000210000000000043e+01 9.672167746590877650e+05
1.002929999999999922e+01 9.583826198113480350e+05
1.005659999999999954e+01 9.503243230570944725e+05
1.008380000000000010e+01 9.430634213333548978e+05
1.011110000000000042e+01 9.372010276598361088e+05
1.013829999999999920e+01 9.334731792908337666e+05
1.016559999999999953e+01 9.323746219947700156e+05
1.019280000000000008e+01 9.339469646484312834e+05
1.022010000000000041e+01 9.380579180131672183e+05
1.024729999999999919e+01 9.444741002104667714e+05
1.027459999999999951e+01 9.525276294343179325e+05
1.030180000000000007e+01 9.611534594076051144e+05
1.032910000000000039e+01 9.689392520143889124e+05
1.035629999999999917e+01 9.749378614439646481e+05
1.038359999999999950e+01 9.793193372504509753e+05
1.041089999999999982e+01 9.828137595736439107e+05
1.043810000000000038e+01 9.855489958076119656e+05
1.046540000000000070e+01 9.872093662940732902e+05
1.049259999999999948e+01 9.870891368059194647e+05
1.051989999999999981e+01 9.842107453287370736e+05
1.054710000000000036e+01 9.776988045703938697e+05
1.057440000000000069e+01 9.677220373246927047e+05
1.060159999999999947e+01 9.557473097816723166e+05
1.062889999999999979e+01 9.439033605767635163e+05
1.065610000000000035e+01 9.334459453674338292e+05
1.068340000000000067e+01 9.242498389724307926e+05
1.071059999999999945e+01 9.156033208959436743e+05
1.073789999999999978e+01 9.070974261980566662e+05
1.076510000000000034e+01 8.986914186879292829e+05
1.079240000000000066e+01 8.902536991274583852e+05
1.081969999999999921e+01 8.816901215808982961e+05
1.084689999999999976e+01 8.733127699727899162e+05
