# energy(eV) alpha
0.000000000000000000e+00 0.000000000000000000e+00
3.549999999999999684e-02 9.369579539523353873e-01
7.090000000000000469e-02 3.859247198649077948e+00
1.063999999999999946e-01 8.598646274282319979e+00
1.418000000000000094e-01 1.543269610491297250e+01
1.773000000000000131e-01 2.411540941826319795e+01
2.127000000000000002e-01 3.488286902580518500e+01
2.482000000000000040e-01 4.723614518175452304e+01
2.836000000000000187e-01 6.212938211966453395e+01
3.190999999999999948e-01 7.907371376939997276e+01
3.544999999999999818e-01 9.801670419190541850e+01
3.900000000000000133e-01 1.190058771756117864e+02
4.254000000000000004e-01 1.423262542115116958e+02
4.608999999999999764e-01 1.681224597146749602e+02
4.963000000000000189e-01 1.959956382692931811e+02
5.318000000000000504e-01 2.268851991725292123e+02
5.672000000000000375e-01 2.599430432398208950e+02
6.027000000000000135e-01 2.957402942337251375e+02
6.381999999999999895e-01 3.343078919458258724e+02
6.735999999999999766e-01 3.751140178689607865e+02
7.090999999999999526e-01 4.199901875018144324e+02
7.445000000000000506e-01 4.678472488956425650e+02
7.800000000000000266e-01 5.195083592612969596e+02
8.154000000000000137e-01 5.743311050522956975e+02
8.508999999999999897e-01 6.332094440502892212e+02
8.862999999999999767e-01 6.961455201160953266e+02
9.217999999999999527e-01 7.626835990234163773e+02
9.572000000000000508e-01 8.350462951607086097e+02
9.927000000000000268e-01 9.120983270770099125e+02
1.028100000000000014e+00 9.937873262609143694e+02
1.063600000000000101e+00 1.082999885353015088e+03
1.098999999999999977e+00 1.179030823855921199e+03
1.134500000000000064e+00 1.282349629493798602e+03
1.169999999999999929e+00 1.392184902645982902e+03
1.205400000000000027e+00 1.512450926314413891e+03
1.240899999999999892e+00 1.641900106450816793e+03
1.276299999999999990e+00 1.784642764321213463e+03
1.311800000000000077e+00 1.939488473060720708e+03
1.347199999999999953e+00 2.109769322997638028e+03
1.382700000000000040e+00 2.297518318149423067e+03
1.418099999999999916e+00 2.507568228296347570e+03
1.453600000000000003e+00 2.742322735964210096e+03
1.489000000000000101e+00 3.009378703501854488e+03
1.524499999999999966e+00 3.315205728522971185e+03
1.559900000000000064e+00 3.674218861291484700e+03
1.595399999999999929e+00 4.100113991241390067e+03
1.630800000000000027e+00 4.617628851903165923e+03
1.666299999999999892e+00 5.267952340677668872e+03
1.701699999999999990e+00 6.107637340040537310e+03
1.737200000000000077e+00 7.238552672158487439e+03
1.772699999999999942e+00 8.817582319582512355e+03
1.808100000000000041e+00 1.105705843601299966e+04
1.843599999999999905e+00 1.409097581379701842e+04
1.879000000000000004e+00 1.749030620429279588e+04
1.914500000000000091e+00 1.990930969423166243e+04
1.949899999999999967e+00 2.045715987806309568e+04
1.985400000000000054e+00 2.006861483126357052e+04
2.020799999999999930e+00 1.961354674199367582e+04
2.056299999999999795e+00 1.920176599849296326e+04
2.091699999999999893e+00 1.907305578043600690e+04
2.127200000000000202e+00 1.970388574640512161e+04
2.162599999999999856e+00 2.143218977480210378e+04
2.198100000000000165e+00 2.426251062637686846e+04
2.233499999999999819e+00 2.774392229945756844e+04
2.269000000000000128e+00 3.133345592118362765e+04
2.304499999999999993e+00 3.507980901461773465e+04
2.339900000000000091e+00 3.946617931263936771e+04
2.375399999999999956e+00 4.521178177982981288e+04
2.410800000000000054e+00 5.244100461403263762e+04
2.446299999999999919e+00 6.053814963715610065e+04
2.481700000000000017e+00 6.870638218546836288e+04
2.517199999999999882e+00 7.692326533913501771e+04
2.552599999999999980e+00 8.562235373896868259e+04
2.588099999999999845e+00 9.424902725183776056e+04
2.623499999999999943e+00 1.020420266572190158e+05
2.658999999999999808e+00 1.088121062247278169e+05
2.694399999999999906e+00 1.141591154088686890e+05
2.729900000000000215e+00 1.183067077715913765e+05
2.765299999999999869e+00 1.219490431776343758e+05
2.800800000000000178e+00 1.252510175312567881e+05
2.836199999999999832e+00 1.280565402186496940e+05
2.871700000000000141e+00 1.310054997633539315e+05
2.907200000000000006e+00 1.350594146681271377e+05
2.942600000000000104e+00 1.407819690969530493e+05
2.978099999999999969e+00 1.479009861032222107e+05
3.013500000000000068e+00 1.549850687465321098e+05
3.048999999999999932e+00 1.605414969216660538e+05
3.084400000000000031e+00 1.645252085769750993e+05
3.119899999999999896e+00 1.681633926244707545e+05
3.155299999999999994e+00 1.726630146094930533e+05
3.190799999999999859e+00 1.782763864137614437e+05
3.226199999999999957e+00 1.844564532583588152e+05
3.261699999999999822e+00 1.903893221078253991e+05
3.297099999999999920e+00 1.951444742038703407e+05
3.332599999999999785e+00 1.985866608584394853e+05
3.367999999999999883e+00 2.014330226210669789e+05
3.403500000000000192e+00 2.044121333819370193e+05
3.439000000000000057e+00 2.076399270618042501e+05
3.474400000000000155e+00 2.112313714364012121e+05
3.509900000000000020e+00 2.156537373539998662e+05
3.545300000000000118e+00 2.216691850594347343e+05
3.580799999999999983e+00 2.297039154993939737e+05
3.616200000000000081e+00 2.391678860717929783e+05
3.651699999999999946e+00 2.489398983288301097e+05
3.687100000000000044e+00 2.580288070261749381e+05
3.722599999999999909e+00 2.658393030885127373e+05
3.758000000000000007e+00 2.722732067203866900e+05
3.793499999999999872e+00 2.776093506693757372e+05
3.828899999999999970e+00 2.820516787727721385e+05
3.864399999999999835e+00 2.854207746489174897e+05
3.899799999999999933e+00 2.870086604356967728e+05
3.935299999999999798e+00 2.864862281355817686e+05
3.970699999999999896e+00 2.843150536653602612e+05
4.006199999999999761e+00 2.813228938560929382e+05
4.041699999999999626e+00 2.782701012727568159e+05
4.077099999999999724e+00 2.756837201582630514e+05
4.112599999999999589e+00 2.737794371866427246e+05
4.147999999999999687e+00 2.728027783751648385e+05
4.183500000000000441e+00 2.733873604535190971e+05
4.218899999999999650e+00 2.760433765462570591e+05
4.254400000000000404e+00 2.807052027246446814e+05
4.289799999999999613e+00 2.868204663382369326e+05
4.325300000000000367e+00 2.940034260891598533e+05
4.360699999999999577e+00 3.021690557862510323e+05
4.396200000000000330e+00 3.111569734916125890e+05
4.431600000000000428e+00 3.206427470488681574e+05
4.467100000000000293e+00 3.307911463830553694e+05
4.502500000000000391e+00 3.420445828393156407e+05
4.538000000000000256e+00 3.545108314009115566e+05
4.573500000000000121e+00 3.678928753520118771e+05
4.608900000000000219e+00 3.816949803168367362e+05
4.644400000000000084e+00 3.950240488960386137e+05
4.679800000000000182e+00 4.068292926426369813e+05
4.715300000000000047e+00 4.165397295470137615e+05
4.750700000000000145e+00 4.240944368311353028e+05
4.786200000000000010e+00 4.299265976676908904e+05
4.821600000000000108e+00 4.348680859305807389e+05
4.857099999999999973e+00 4.399474095024117851e+05
4.892500000000000071e+00 4.456969715488537331e+05
4.927999999999999936e+00 4.516434199679457815e+05
4.963400000000000034e+00 4.565574545846909750e+05
4.998899999999999899e+00 4.599088225675016874e+05
5.034299999999999997e+00 4.623933674206350115e+05
5.069799999999999862e+00 4.647487291787222493e+05
5.105199999999999960e+00 4.672292797971516848e+05
5.140699999999999825e+00 4.701078765745848068e+05
5.176199999999999690e+00 4.736192211701708729e+05
5.211599999999999788e+00 4.776388867052573478e+05
5.247099999999999653e+00 4.813633455964961904e+05
5.282499999999999751e+00 4.837517471714075073e+05
5.317999999999999616e+00 4.844022212490224047e+05
5.353399999999999714e+00 4.834716853316769702e+05
5.388899999999999579e+00 4.814086347847927827e+05
5.424299999999999677e+00 4.785407588005198049e+05
5.459800000000000431e+00 4.748654230179139413e+05
5.495199999999999640e+00 4.703060804252952803e+05
5.530700000000000394e+00 4.652014309559327667e+05
5.566099999999999604e+00 4.600430639193115640e+05
5.601600000000000357e+00 4.551320554587918450e+05
5.636999999999999567e+00 4.506692603203129838e+05
5.672500000000000320e+00 4.473275636683478951e+05
5.708000000000000185e+00 4.457403250023808214e+05
5.743400000000000283e+00 4.461931068023584667e+05
5.778900000000000148e+00 4.488105496273077442e+05
5.814300000000000246e+00 4.534417515333119081e+05
5.849800000000000111e+00 4.598293889763387851e+05
5.885200000000000209e+00 4.677422153568292852e+05
5.920700000000000074e+00 4.772868663028262672e+05
5.956100000000000172e+00 4.889141099696690217e+05
5.991600000000000037e+00 5.031029956652291003e+05
6.027000000000000135e+00 5.198923269695346826e+05
6.062500000000000000e+00 5.388843001695765415e+05
6.097900000000000098e+00 5.594333546906864503e+05
6.133399999999999963e+00 5.809024829471984413e+05
6.168800000000000061e+00 6.027448609659323702e+05
6.204299999999999926e+00 6.244625757488599047e+05
6.239700000000000024e+00 6.455028372738135513e+05
6.275199999999999889e+00 6.656052859982266091e+05
6.310699999999999754e+00 6.845739981768868165e+05
6.346099999999999852e+00 7.016035324584712507e+05
6.381599999999999717e+00 7.160241335949276108e+05
6.416999999999999815e+00 7.281213846562532708e+05
6.452499999999999680e+00 7.387260143691004487e+05
6.487899999999999778e+00 7.484575839841050329e+05
6.523399999999999643e+00 7.578002197901093168e+05
6.558799999999999741e+00 7.669906024321021978e+05
6.594299999999999606e+00 7.759961691597909667e+05
6.629699999999999704e+00 7.844251398602320114e+05
6.665199999999999569e+00 7.919436242431721184e+05
6.700599999999999667e+00 7.980918647255377145e+05
6.736100000000000421e+00 8.027445763155409368e+05
6.771499999999999631e+00 8.065765971176873427e+05
6.807000000000000384e+00 8.104199705543851014e+05
6.842500000000000249e+00 8.146132716975136427e+05
6.877900000000000347e+00 8.189782781112035736e+05
6.913400000000000212e+00 8.230390316521846689e+05
6.948800000000000310e+00 8.263154352811385179e+05
6.984300000000000175e+00 8.287347145709067117e+05
7.019700000000000273e+00 8.303944320657723583e+05
7.055200000000000138e+00 8.316464284716523252e+05
7.090600000000000236e+00 8.331562031356717926e+05
7.126100000000000101e+00 8.354402958493850892e+05
7.161500000000000199e+00 8.385548965685487492e+05
7.197000000000000064e+00 8.423357693053354742e+05
7.232400000000000162e+00 8.467163028207346797e+05
7.267900000000000027e+00 8.518817105625524418e+05
7.303300000000000125e+00 8.575577204567322042e+05
7.338799999999999990e+00 8.630608687863431405e+05
7.374200000000000088e+00 8.679150929501015926e+05
7.409699999999999953e+00 8.720137355018727249e+05
7.445199999999999818e+00 8.750953591696581570e+05
7.480599999999999916e+00 8.773401841784345452e+05
7.516099999999999781e+00 8.794736250396629330e+05
7.551499999999999879e+00 8.817620880383659387e+05
7.586999999999999744e+00 8.841114760265736841e+05
7.622399999999999842e+00 8.866876989805238554e+05
7.657899999999999707e+00 8.897628399316426367e+05
7.693299999999999805e+00 8.932943033586717211e+05
7.728799999999999670e+00 8.971211869517901214e+05
7.764199999999999768e+00 9.011240451159225777e+05
7.799699999999999633e+00 9.050825258374167606e+05
7.835099999999999731e+00 9.083631254658407997e+05
7.870599999999999596e+00 9.104668477834047517e+05
7.905999999999999694e+00 9.114676690593963722e+05
7.941499999999999559e+00 9.120256327167465352e+05
7.977000000000000313e+00 9.124838624172413256e+05
8.012399999999999523e+00 9.127491840052811895e+05
8.047900000000000276e+00 9.125645469572407892e+05
8.083299999999999486e+00 9.116459999421498505e+05
8.118800000000000239e+00 9.099681463724031346e+05
8.154199999999999449e+00 9.079248343145980034e+05
8.189700000000000202e+00 9.061441385732886847e+05
8.225099999999999412e+00 9.049734136334251380e+05
8.260600000000000165e+00 9.047065688935467042e+05
8.295999999999999375e+00 9.055190365028100787e+05
8.331500000000000128e+00 9.073497469889392378e+05
8.366899999999999338e+00 9.099410490416309331e+05
8.402400000000000091e+00 9.128435883524111705e+05
8.437799999999999301e+00 9.156152825965719530e+05
8.473300000000000054e+00 9.181322380606231745e+05
8.508699999999999264e+00 9.206403178365728818e+05
8.544200000000000017e+00 9.235362180963911815e+05
8.579700000000000770e+00 9.269146723762183683e+05
8.615099999999999980e+00 9.305789165816419991e+05
8.650600000000000733e+00 9.344400366012955783e+05
8.685999999999999943e+00 9.385654326595714083e+05
8.721500000000000696e+00 9.432308661075356649e+05
8.756899999999999906e+00 9.484954060385923367e+05
8.792400000000000659e+00 9.540103046157601057e+05
8.827799999999999869e+00 9.589558181620915420e+05
8.863300000000000622e+00 9.627858770043266704e+05
8.898699999999999832e+00 9.653025279837795533e+05
8.934200000000000585e+00 9.664719728714521043e+05
8.969599999999999795e+00 9.667764867960939882e+05
9.005100000000000549e+00 9.668107815330618760e+05
9.040499999999999758e+00 9.666883173923275899e+05
9.076000000000000512e+00 9.661798969343918143e+05
9.111499999999999488e+00 9.652692283066953532e+05
9.146900000000000475e+00 9.643934555411196779e+05
9.182399999999999451e+00 9.639435192858227529e+05
9.217800000000000438e+00 9.640193728705474641e+05
9.253299999999999415e+00 9.642918827522447100e+05
9.288700000000000401e+00 9.639841385437182616e+05
9.324199999999999378e+00 9.625532220650755335e+05
9.359600000000000364e+00 9.600035944716699887e+05
9.395099999999999341e+00 9.567430330495859962e+05
9.430500000000000327e+00 9.529482446016273461e+05
9.465999999999999304e+00 9.486002700171924662e+05
9.501400000000000290e+00 9.437466431496010628e+05
9.536899999999999267e+00 9.386783274086740566e+05
9.572300000000000253e+00 9.338262790102668805e+05
9.607799999999999230e+00 9.297425825484460220e+05
9.643200000000000216e+00 9.267127839814617764e+05
9.678699999999999193e+00 9.246846113422664348e+05
9.714199999999999946e+00 9.235210067967338255e+05
9.749599999999999156e+00 9.232158276014558505e+05
9.785099999999999909e+00 9.234912267013482051e+05
9.820499999999999119e+00 9.237320688588329358e+05
9.855999999999999872e+00 9.236916449144625803e+05
9.891400000000000858e+00 9.238414572380036116e+05
9.926899999999999835e+00 9.248412683368987637e+05
9.962300000000000821e+00 9.263688324748137966e+05
9.997799999999999798e+00 9.272330738949981751e+05
1.003320000000000078e+01 9.269473499077236047e+05
1.006869999999999976e+01 9.260359644044158049e+05
1.010410000000000075e+01 9.246760251440026332e+05
1.013959999999999972e+01 9.229811906614772743e+05
1.017500000000000071e+01 9.214045472563366638e+05
1.021049999999999969e+01 9.201797833592739189e+05
1.024600000000000044e+01 9.192337630020702491e+05
1.028139999999999965e+01 9.185909012695121346e+05
1.031690000000000040e+01 9.179470606712519657e+05
1.035229999999999961e+01 9.164723128901873715e+05
1.038780000000000037e+01 9.136699412633540342e+05
1.042319999999999958e+01 9.098620925082309404e+05
1.045870000000000033e+01 9.053721245257847477e+05
1.049409999999999954e+01 9.004573812251327327e+05
1.052960000000000029e+01 8.950162555496251443e+05
1.056499999999999950e+01 8.887777006996135460e+05
1.060050000000000026e+01 8.819909749198337086e+05
1.063589999999999947e+01 8.751658301063051913e+05
1.067140000000000022e+01 8.685316403570321854e+05
1.070679999999999943e+01 8.617947999162111664e+05
1.074230000000000018e+01 8.545809486162725370e+05
1.077769999999999939e+01 8.464070157790996600e+05
1.081320000000000014e+01 8.370872204100680538e+05
1.084869999999999912e+01 8.270636384721420472e+05
1.088410000000000011e+01 8.171463326606163755e+05
1.091960000000000086e+01 8.077087072088210844e+05
1.095500000000000007e+01 7.989778390002682572e+05
1.099050000000000082e+01 7.911269389137483668e+05
1.102590000000000003e+01 7.839674407546424773e+05
1.106140000000000079e+01 7.776805165480689611e+05
1.109680000000000000e+01 7.723380876948126825e+05
1.113230000000000075e+01 7.678547131863897666e+05
1.116769999999999996e+01 7.640156362384865060e+05
1.120320000000000071e+01 7.604575460958307376e+05
1.123859999999999992e+01 7.566275355438154656e+05
1.127410000000000068e+01 7.525525233523029601e+05
1.130949999999999989e+01 7.484710117368709762e+05
1.134500000000000064e+01 7.448394614230425796e+05
1.138039999999999985e+01 7.419495145628831815e+05
1.141590000000000060e+01 7.398997185416723369e+05
1.145139999999999958e+01 7.385409653034894727e+05
1.148680000000000057e+01 7.377516106229537399e+05
1.152229999999999954e+01 7.376619396713325987e+05
1.155770000000000053e+01 7.382093244161277544e+05
1.159319999999999951e+01 7.393383569183711661e+05
1.162860000000000049e+01 7.409269310181867331e+05
1.166409999999999947e+01 7.427309774828290101e+05
1.169950000000000045e+01 7.444254346130528720e+05
1.173499999999999943e+01 7.459436438698930433e+05
1.177040000000000042e+01 7.473588127878777450e+05
1.180589999999999939e+01 7.485933370527097723e+05
1.184130000000000038e+01 7.498112009453532519e+05
1.187679999999999936e+01 7.512042806920125149e+05
1.191220000000000034e+01 7.531190155178599525e+05
1.194769999999999932e+01 7.556397335037486628e+05
1.198320000000000007e+01 7.590537162345371908e+05
1.201859999999999928e+01 7.635955352811128832e+05
1.205410000000000004e+01 7.687562445481631439e+05
1.208949999999999925e+01 7.736394165668638889e+05
1.212500000000000000e+01 7.779772360479639610e+05
1.216039999999999921e+01 7.818500552520309575e+05
1.219589999999999996e+01 7.852775177758149803e+05
1.223129999999999917e+01 7.888086008470656816e+05
1.226679999999999993e+01 7.932445410581573378e+05
1.230219999999999914e+01 7.986946347303356742e+05
1.233769999999999989e+01 8.047697141186898807e+05
1.237310000000000088e+01 8.111493855659327237e+05
1.240859999999999985e+01 8.177992251808552537e+05
1.244400000000000084e+01 8.246049883836877998e+05
1.247949999999999982e+01 8.305863615661124932e+05
1.251490000000000080e+01 8.342964533163852757e+05
1.255039999999999978e+01 8.349467855851897039e+05
1.258590000000000053e+01 8.326576778652624926e+05
1.262129999999999974e+01 8.282618066214658320e+05
1.265680000000000049e+01 8.225084764655182371e+05
1.269219999999999970e+01 8.160091156355773564e+05
1.272770000000000046e+01 8.097060286258251872e+05
1.276309999999999967e+01 8.041191901870595757e+05
1.279860000000000042e+01 7.992365906245483784e+05
1.283399999999999963e+01 7.948664677433024626e+05
1.286950000000000038e+01 7.912901604864939582e+05
1.290489999999999959e+01 7.888236133605892537e+05
1.294040000000000035e+01 7.874626808556693140e+05
1.297579999999999956e+01 7.867679330916908802e+05
1.301130000000000031e+01 7.866453503326815553e+05
1.304669999999999952e+01 7.871021692199198296e+05
1.308220000000000027e+01 7.881172174900308019e+05
1.311769999999999925e+01 7.895428221657172544e+05
1.315310000000000024e+01 7.913160520189420786e+05
1.318859999999999921e+01 7.935637642961583333e+05
1.322400000000000020e+01 7.965760758616590174e+05
1.325949999999999918e+01 8.010085752966798609e+05
1.329490000000000016e+01 8.072678712655532872e+05
1.333039999999999914e+01 8.154585741914098617e+05
1.336580000000000013e+01 8.253966137068305397e+05
1.340130000000000088e+01 8.370097703903298825e+05
1.343670000000000009e+01 8.503857382137285313e+05
1.347220000000000084e+01 8.655508959055898013e+05
1.350760000000000005e+01 8.822599518860726384e+05
1.354310000000000080e+01 8.995664846246865345e+05
1.357850000000000001e+01 9.157078638022701489e+05
1.361400000000000077e+01 9.291045624727578834e+05
1.364939999999999998e+01 9.386096743490605149e+05
1.368490000000000073e+01 9.441929124013067922e+05
1.372039999999999971e+01 9.466104341603419743e+05
1.375580000000000069e+01 9.468881954736165935e+05
1.379129999999999967e+01 9.464142503487387439e+05
1.382670000000000066e+01 9.465149430038868450e+05
1.386219999999999963e+01 9.479567973250196083e+05
1.389760000000000062e+01 9.505139330544433324e+05
1.393309999999999960e+01 9.538063513663290069e+05
1.396850000000000058e+01 9.576186640429961262e+05
1.400399999999999956e+01 9.614181485512631480e+05
1.403940000000000055e+01 9.646387271865153452e+05
1.407489999999999952e+01 9.669365602601888822e+05
1.411030000000000051e+01 9.685352360737102572e+05
