# energy(eV) alpha
0.000000000000000000e+00 0.000000000000000000e+00
3.540000000000000091e-02 9.936892322296075886e-01
7.080000000000000182e-02 3.974472021353862683e+00
1.062000000000000027e-01 8.766170568334210600e+00
1.416000000000000036e-01 1.554280574104125456e+01
1.769999999999999907e-01 2.439014619718305710e+01
2.124000000000000055e-01 3.539293268212901467e+01
2.477999999999999925e-01 4.822728094515943553e+01
2.832000000000000073e-01 6.326813409698878843e+01
3.185999999999999943e-01 8.059953307731146310e+01
3.539999999999999813e-01 9.971940510979587202e+01
3.894000000000000239e-01 1.214973866376955698e+02
4.248000000000000109e-01 1.450520065225350663e+02
4.601999999999999980e-01 1.710462268503640644e+02
4.955999999999999850e-01 1.999669847585757623e+02
5.310000000000000275e-01 2.315383233955459161e+02
5.664000000000000146e-01 2.653769373484861376e+02
6.018000000000000016e-01 3.019620199372960769e+02
6.371999999999999886e-01 3.413674870758527504e+02
6.724999999999999867e-01 3.836090045563151421e+02
7.078999999999999737e-01 4.294456738005279703e+02
7.432999999999999607e-01 4.789803417449896870e+02
7.786999999999999478e-01 5.317268115555135637e+02
8.141000000000000458e-01 5.884118434904296464e+02
8.495000000000000329e-01 6.491878892769312870e+02
8.849000000000000199e-01 7.141904993082907822e+02
9.203000000000000069e-01 7.835609239638766894e+02
9.556999999999999940e-01 8.589901608795054244e+02
9.910999999999999810e-01 9.383701410266388621e+02
1.026499999999999968e+00 1.025052896953469826e+03
1.061900000000000066e+00 1.116839312310948571e+03
1.097299999999999942e+00 1.216510027784334852e+03
1.132700000000000040e+00 1.324391311658744144e+03
1.168099999999999916e+00 1.440845485031437192e+03
1.203500000000000014e+00 1.566191440042694921e+03
1.238899999999999890e+00 1.702730696214691989e+03
1.274299999999999988e+00 1.851932854342441033e+03
1.309700000000000086e+00 2.015351991159322779e+03
1.345099999999999962e+00 2.194622470376893034e+03
1.380500000000000060e+00 2.393637212877603361e+03
1.415899999999999936e+00 2.612074382501671153e+03
1.451300000000000034e+00 2.857476508961135551e+03
1.486699999999999910e+00 3.135540565429617345e+03
1.522100000000000009e+00 3.452304552491538288e+03
1.557500000000000107e+00 3.817665152223803034e+03
1.592899999999999983e+00 4.243308904251397507e+03
1.628300000000000081e+00 4.747652763377434894e+03
1.663699999999999957e+00 5.361511643675362393e+03
1.699100000000000055e+00 6.122385896946450885e+03
1.734499999999999931e+00 7.094311007860037535e+03
1.769900000000000029e+00 8.381785999668360091e+03
1.805299999999999905e+00 1.014455978841657634e+04
1.840700000000000003e+00 1.263313199966592947e+04
1.876100000000000101e+00 1.614863286533282189e+04
1.911499999999999977e+00 2.068351879033440855e+04
1.946900000000000075e+00 2.514156261610437286e+04
1.982199999999999962e+00 2.767881193405659360e+04
2.017599999999999838e+00 2.822591853875359811e+04
2.052999999999999936e+00 2.874916217103748568e+04
2.088400000000000034e+00 3.051578999264450249e+04
2.123800000000000132e+00 3.358370096554301563e+04
2.159199999999999786e+00 3.804881745592691732e+04
2.194599999999999884e+00 4.331471701118310739e+04
2.229999999999999982e+00 4.740995782297234109e+04
2.265400000000000080e+00 4.943771402952908829e+04
2.300800000000000178e+00 5.100120158017744689e+04
2.336199999999999832e+00 5.360531345767362654e+04
2.371599999999999930e+00 5.750715956844847824e+04
2.407000000000000028e+00 6.217370271873923048e+04
2.442400000000000126e+00 6.660864588473814365e+04
2.477799999999999780e+00 7.074510243615841318e+04
2.513199999999999878e+00 7.525619033593122731e+04
2.548599999999999977e+00 8.044868647639252595e+04
2.584000000000000075e+00 8.542011505789218063e+04
2.619400000000000173e+00 8.933237393392066588e+04
2.654799999999999827e+00 9.306113216510997154e+04
2.690199999999999925e+00 9.767228311722233775e+04
2.725600000000000023e+00 1.030478572004939633e+05
2.761000000000000121e+00 1.083735896203941957e+05
2.796400000000000219e+00 1.134009237408594927e+05
2.831799999999999873e+00 1.183106015983350517e+05
2.867199999999999971e+00 1.229774451744959078e+05
2.902600000000000069e+00 1.272028359664331801e+05
2.938000000000000167e+00 1.316076325271312380e+05
2.973399999999999821e+00 1.363610834661518747e+05
3.008799999999999919e+00 1.405577377895751270e+05
3.044200000000000017e+00 1.443714876728869858e+05
3.079600000000000115e+00 1.489485541175825347e+05
3.115000000000000213e+00 1.545353487704605213e+05
3.150399999999999867e+00 1.605692010709467286e+05
3.185799999999999965e+00 1.664731181614730449e+05
3.221200000000000063e+00 1.721250998974187823e+05
3.256600000000000161e+00 1.777179799179774418e+05
3.291900000000000048e+00 1.831155887176141259e+05
3.327300000000000146e+00 1.881460122760883824e+05
3.362699999999999800e+00 1.926131345244906843e+05
3.398099999999999898e+00 1.965770095846434706e+05
3.433499999999999996e+00 2.009763595036889601e+05
3.468900000000000095e+00 2.065813220516513684e+05
3.504300000000000193e+00 2.132438541472530051e+05
3.539699999999999847e+00 2.204853014379423403e+05
3.575099999999999945e+00 2.279740960066003317e+05
3.610500000000000043e+00 2.354630853620888956e+05
3.645900000000000141e+00 2.425473046057693427e+05
3.681299999999999795e+00 2.486704048057766631e+05
3.716699999999999893e+00 2.536863487498678733e+05
3.752099999999999991e+00 2.579675288095849683e+05
3.787500000000000089e+00 2.617273792323544330e+05
3.822900000000000187e+00 2.650670294193123118e+05
3.858299999999999841e+00 2.683145751959430636e+05
3.893699999999999939e+00 2.710641500468370505e+05
3.929100000000000037e+00 2.723617352876967634e+05
3.964500000000000135e+00 2.717547005306386854e+05
3.999899999999999789e+00 2.696312117492653779e+05
4.035300000000000331e+00 2.668983691945163882e+05
4.070700000000000429e+00 2.641061716645926936e+05
4.106099999999999639e+00 2.617355157645428262e+05
4.141499999999999737e+00 2.607437772167220537e+05
4.176899999999999835e+00 2.618546673747588648e+05
4.212299999999999933e+00 2.645629683118202956e+05
4.247700000000000031e+00 2.677468370766600710e+05
4.283100000000000129e+00 2.712474361899056239e+05
4.318500000000000227e+00 2.757720744999509188e+05
4.353900000000000325e+00 2.819826831557202386e+05
4.389300000000000423e+00 2.902843533338002744e+05
4.424699999999999633e+00 3.007241358167219441e+05
4.460099999999999731e+00 3.129830525094128097e+05
4.495499999999999829e+00 3.264955957147272420e+05
4.530899999999999928e+00 3.408977164051411091e+05
4.566300000000000026e+00 3.560087779025780037e+05
4.601600000000000357e+00 3.712577293722080649e+05
4.636999999999999567e+00 3.858284372042043251e+05
4.672399999999999665e+00 3.990981829241768573e+05
4.707799999999999763e+00 4.108960351175212418e+05
4.743199999999999861e+00 4.211542566122157150e+05
4.778599999999999959e+00 4.293798618019657442e+05
4.814000000000000057e+00 4.352581180305219605e+05
4.849400000000000155e+00 4.393966415751547320e+05
4.884800000000000253e+00 4.426341846487889416e+05
4.920200000000000351e+00 4.453497059716272634e+05
4.955599999999999561e+00 4.476668183578887838e+05
4.990999999999999659e+00 4.499568940481831087e+05
5.026399999999999757e+00 4.530337715016373550e+05
5.061799999999999855e+00 4.575313576344270259e+05
5.097199999999999953e+00 4.632386599748567678e+05
5.132600000000000051e+00 4.690896855049006990e+05
5.168000000000000149e+00 4.741404114483916201e+05
5.203400000000000247e+00 4.778870134993926622e+05
5.238800000000000345e+00 4.802118176199928857e+05
5.274200000000000443e+00 4.814239551521952380e+05
5.309599999999999653e+00 4.817722877340356936e+05
5.344999999999999751e+00 4.813460900665409281e+05
5.380399999999999849e+00 4.803216242425314267e+05
5.415799999999999947e+00 4.786711032401269767e+05
5.451200000000000045e+00 4.762222599654188380e+05
5.486600000000000144e+00 4.731046836720595602e+05
5.522000000000000242e+00 4.695864398947631707e+05
5.557400000000000340e+00 4.657453945414848276e+05
5.592800000000000438e+00 4.618821314216969186e+05
5.628199999999999648e+00 4.587846687485846342e+05
5.663599999999999746e+00 4.570848175790560199e+05
5.698999999999999844e+00 4.571369494592113188e+05
5.734399999999999942e+00 4.592043194532967173e+05
5.769800000000000040e+00 4.631021274876678362e+05
5.805200000000000138e+00 4.683487280042424100e+05
5.840600000000000236e+00 4.746616405830002041e+05
5.876000000000000334e+00 4.820861316833432647e+05
5.911299999999999777e+00 4.908373225361090736e+05
5.946699999999999875e+00 5.011857465471691103e+05
5.982099999999999973e+00 5.136576841257801862e+05
6.017500000000000071e+00 5.287406584937568987e+05
6.052900000000000169e+00 5.461804081760759000e+05
6.088300000000000267e+00 5.651965983831275953e+05
6.123700000000000365e+00 5.849824750908749411e+05
6.159099999999999575e+00 6.051746844941794407e+05
6.194499999999999673e+00 6.253182833318235353e+05
6.229899999999999771e+00 6.447390688001350500e+05
6.265299999999999869e+00 6.633031194276262540e+05
6.300699999999999967e+00 6.812400723843767773e+05
6.336100000000000065e+00 6.986252756388620473e+05
6.371500000000000163e+00 7.153295388773389859e+05
6.406900000000000261e+00 7.310965386640765937e+05
6.442300000000000360e+00 7.453491659956364892e+05
6.477699999999999569e+00 7.576467050222234102e+05
6.513099999999999667e+00 7.684769287948472193e+05
6.548499999999999766e+00 7.786030235488489270e+05
6.583899999999999864e+00 7.880220341007744428e+05
6.619299999999999962e+00 7.959683903413201915e+05
6.654700000000000060e+00 8.017187694050020073e+05
6.690100000000000158e+00 8.052187727583767846e+05
6.725500000000000256e+00 8.076141473647276871e+05
6.760900000000000354e+00 8.104005767565707210e+05
6.796299999999999564e+00 8.142256563318653498e+05
6.831699999999999662e+00 8.188083976258718176e+05
6.867099999999999760e+00 8.235106441060476936e+05
6.902499999999999858e+00 8.279173507281686179e+05
6.937899999999999956e+00 8.319519375320440158e+05
6.973300000000000054e+00 8.353100015115285059e+05
7.008700000000000152e+00 8.376214185982468771e+05
7.044100000000000250e+00 8.390778175575592322e+05
7.079500000000000348e+00 8.402809160509111825e+05
7.114899999999999558e+00 8.415716481740792515e+05
7.150299999999999656e+00 8.433550222224693280e+05
7.185699999999999754e+00 8.460560108901442727e+05
7.221000000000000085e+00 8.497365085796701023e+05
7.256400000000000183e+00 8.540364279651729157e+05
7.291800000000000281e+00 8.582874882240219740e+05
7.327200000000000379e+00 8.619853752780419309e+05
7.362599999999999589e+00 8.652160916575260926e+05
7.397999999999999687e+00 8.682623245420817984e+05
7.433399999999999785e+00 8.711693835559716681e+05
7.468799999999999883e+00 8.738962175331383478e+05
7.504199999999999982e+00 8.768457814553619828e+05
7.539600000000000080e+00 8.803711860725015868e+05
7.575000000000000178e+00 8.843966893746054266e+05
7.610400000000000276e+00 8.885753276421567425e+05
7.645800000000000374e+00 8.924241241987498943e+05
7.681199999999999584e+00 8.958003653816212900e+05
7.716599999999999682e+00 8.987188321760984836e+05
7.751999999999999780e+00 9.014348504136020783e+05
7.787399999999999878e+00 9.041679025944768218e+05
7.822799999999999976e+00 9.066804456191770732e+05
7.858200000000000074e+00 9.088736853308283025e+05
7.893600000000000172e+00 9.109567996801757254e+05
7.929000000000000270e+00 9.128307153877103701e+05
7.964400000000000368e+00 9.139797153964968165e+05
7.999799999999999578e+00 9.138573962617457146e+05
8.035199999999999676e+00 9.125265322575093014e+05
8.070600000000000662e+00 9.105818095387560315e+05
8.105999999999999872e+00 9.083583357672197744e+05
8.141400000000000858e+00 9.059966840951961931e+05
8.176800000000000068e+00 9.039103173409334850e+05
8.212199999999999278e+00 9.025532208273633150e+05
8.247600000000000264e+00 9.019876717632048531e+05
8.282999999999999474e+00 9.021515356463127537e+05
8.318400000000000460e+00 9.029324910026288126e+05
8.353799999999999670e+00 9.040950969830347458e+05
8.389200000000000657e+00 9.054043225408368744e+05
8.424599999999999866e+00 9.071214542720936006e+05
8.460000000000000853e+00 9.095115879595484585e+05
8.495400000000000063e+00 9.126292411071902607e+05
8.530699999999999505e+00 9.163326184723317856e+05
8.566100000000000492e+00 9.202198689759365516e+05
8.601499999999999702e+00 9.241275466818982968e+05
8.636900000000000688e+00 9.282334171891532606e+05
8.672299999999999898e+00 9.327675419240589254e+05
8.707700000000000884e+00 9.377037862361973384e+05
8.743100000000000094e+00 9.426383429824644700e+05
8.778499999999999304e+00 9.468377326076776953e+05
8.813900000000000290e+00 9.497448855777536519e+05
8.849299999999999500e+00 9.512853381207905477e+05
8.884700000000000486e+00 9.518967458785731578e+05
8.920099999999999696e+00 9.521904214241341688e+05
8.955500000000000682e+00 9.525752117427049670e+05
8.990899999999999892e+00 9.531882350004755426e+05
9.026300000000000878e+00 9.539240473371808184e+05
9.061700000000000088e+00 9.544140406870004954e+05
9.097099999999999298e+00 9.543845322344410233e+05
9.132500000000000284e+00 9.539054219904877245e+05
9.167899999999999494e+00 9.534072153720590286e+05
9.203300000000000480e+00 9.531695443121182034e+05
9.238699999999999690e+00 9.530581377924417611e+05
9.274100000000000676e+00 9.529097086188272806e+05
9.309499999999999886e+00 9.525542157086995430e+05
9.344900000000000873e+00 9.515395958031226182e+05
9.380300000000000082e+00 9.493263387319454923e+05
9.415699999999999292e+00 9.460634917675327742e+05
9.451100000000000279e+00 9.424324551330730319e+05
9.486499999999999488e+00 9.389271865348181454e+05
9.521900000000000475e+00 9.355170994080869714e+05
9.557299999999999685e+00 9.320890763328038156e+05
9.592700000000000671e+00 9.290809229519403307e+05
9.628099999999999881e+00 9.267848714757337002e+05
9.663500000000000867e+00 9.252038275303938426e+05
9.698900000000000077e+00 9.242918513566659531e+05
9.734299999999999287e+00 9.239827747033055639e+05
9.769700000000000273e+00 9.242741985310788732e+05
9.805099999999999483e+00 9.248673963205784094e+05
9.840400000000000702e+00 9.252751796656110091e+05
9.875799999999999912e+00 9.252945338596005458e+05
9.911199999999999122e+00 9.249257588865187718e+05
9.946600000000000108e+00 9.244167329639397794e+05
9.981999999999999318e+00 9.242210802716282196e+05
1.001740000000000030e+01 9.245415217689346755e+05
1.005279999999999951e+01 9.250136154424702981e+05
1.008820000000000050e+01 9.248629275123148691e+05
1.012359999999999971e+01 9.237190179130013566e+05
1.015900000000000070e+01 9.217569990321838995e+05
1.019439999999999991e+01 9.195568427140009589e+05
1.022979999999999912e+01 9.179209949014323065e+05
1.026520000000000010e+01 9.172077384803498862e+05
1.030059999999999931e+01 9.164358620971760247e+05
1.033600000000000030e+01 9.145840913352122298e+05
1.037139999999999951e+01 9.110736787318001734e+05
1.040680000000000049e+01 9.062561010677305749e+05
1.044219999999999970e+01 9.007492394353362033e+05
1.047760000000000069e+01 8.946019424858059501e+05
1.051299999999999990e+01 8.877797715440609027e+05
1.054840000000000089e+01 8.804834171432402218e+05
1.058380000000000010e+01 8.731410426235347986e+05
1.061919999999999931e+01 8.663438619549643481e+05
1.065460000000000029e+01 8.605301735459407791e+05
1.068999999999999950e+01 8.554488110517322784e+05
1.072540000000000049e+01 8.504059106170611922e+05
1.076079999999999970e+01 8.440602629566115793e+05
1.079620000000000068e+01 8.361702637372389436e+05
1.083159999999999989e+01 8.277075147152924910e+05
1.086700000000000088e+01 8.197275979255969869e+05
1.090240000000000009e+01 8.122307995748315006e+05
1.093779999999999930e+01 8.046161966767060803e+05
1.097320000000000029e+01 7.968555912915830268e+05
1.100859999999999950e+01 7.894293994368433487e+05
1.104400000000000048e+01 7.827168501226776280e+05
1.107939999999999969e+01 7.767935670989183709e+05
1.111480000000000068e+01 7.716577741781636141e+05
1.115010000000000012e+01 7.672914021609481424e+05
1.118549999999999933e+01 7.633767517778115580e+05
1.122090000000000032e+01 7.593429767325446010e+05
1.125629999999999953e+01 7.549854197345126886e+05
1.129170000000000051e+01 7.506328209083247930e+05
1.132709999999999972e+01 7.465334902745631989e+05
1.136250000000000071e+01 7.428088975122988923e+05
1.139789999999999992e+01 7.396779107179729035e+05
1.143329999999999913e+01 7.374858523495164700e+05
1.146870000000000012e+01 7.363276387298464542e+05
1.150409999999999933e+01 7.360133619273535442e+05
1.153950000000000031e+01 7.362435792055595666e+05
1.157489999999999952e+01 7.366809771787266945e+05
1.161030000000000051e+01 7.372738919291283237e+05
1.164569999999999972e+01 7.383387326890593395e+05
1.168110000000000070e+01 7.401979257310003741e+05
1.171649999999999991e+01 7.426029073112264741e+05
1.175189999999999912e+01 7.449869788043594453e+05
1.178730000000000011e+01 7.471152969643035904e+05
1.182269999999999932e+01 7.489949346558518009e+05
1.185810000000000031e+01 7.505892024945948506e+05
1.189349999999999952e+01 7.519958364727359731e+05
1.192890000000000050e+01 7.535528087502971757e+05
1.196429999999999971e+01 7.558577426956680138e+05
1.199970000000000070e+01 7.592335376625845674e+05
1.203509999999999991e+01 7.637329745897542452e+05
1.207049999999999912e+01 7.689818835849979660e+05
1.210590000000000011e+01 7.741262255055736750e+05
1.214129999999999932e+01 7.782916192047118675e+05
1.217670000000000030e+01 7.813795744876026874e+05
1.221209999999999951e+01 7.839517831611330621e+05
1.224750000000000050e+01 7.867818945605619811e+05
1.228289999999999971e+01 7.904145760835220572e+05
1.231830000000000069e+01 7.951054467529698741e+05
1.235369999999999990e+01 8.010362455753642134e+05
1.238909999999999911e+01 8.083544509627602529e+05
1.242450000000000010e+01 8.164719998610240873e+05
1.245979999999999954e+01 8.240340043588066474e+05
1.249520000000000053e+01 8.292434838759857230e+05
1.253059999999999974e+01 8.311328169180232799e+05
1.256600000000000072e+01 8.296160197598394006e+05
1.260139999999999993e+01 8.254027989027623553e+05
1.263679999999999914e+01 8.198880618918797700e+05
1.267220000000000013e+01 8.143323333229008131e+05
1.270759999999999934e+01 8.092500627017535735e+05
1.274300000000000033e+01 8.049412044367411872e+05
1.277839999999999954e+01 8.016433061192387249e+05
1.281380000000000052e+01 7.992721438704031752e+05
1.284919999999999973e+01 7.974755946550838416e+05
1.288460000000000072e+01 7.960032718410447706e+05
1.291999999999999993e+01 7.948438887740311911e+05
1.295539999999999914e+01 7.941571706146646757e+05
1.299080000000000013e+01 7.940308237589816563e+05
1.302619999999999933e+01 7.944982071799985133e+05
1.306160000000000032e+01 7.952294893377664266e+05
1.309699999999999953e+01 7.959693783384205308e+05
1.313240000000000052e+01 7.967533670549168019e+05
1.316779999999999973e+01 7.977286829213749152e+05
1.320320000000000071e+01 7.992775893034705659e+05
1.323859999999999992e+01 8.020264758031945676e+05
1.327399999999999913e+01 8.065413061386949848e+05
1.330940000000000012e+01 8.129220658861617558e+05
1.334479999999999933e+01 8.210434267316923942e+05
1.338020000000000032e+01 8.309778341149769258e+05
1.341559999999999953e+01 8.427623761406441918e+05
1.345100000000000051e+01 8.562196483924358618e+05
1.348639999999999972e+01 8.711230494954992319e+05
1.352180000000000071e+01 8.867923078654842684e+05
1.355719999999999992e+01 9.022093365074916510e+05
1.359259999999999913e+01 9.162212342577128438e+05
1.362800000000000011e+01 9.280535866919149412e+05
1.366339999999999932e+01 9.367452437903134851e+05
1.369880000000000031e+01 9.417694961416712031e+05
1.373419999999999952e+01 9.437455944829254877e+05
1.376950000000000074e+01 9.437708316438994370e+05
1.380489999999999995e+01 9.432256580588158686e+05
1.384029999999999916e+01 9.434126814175599720e+05
1.387570000000000014e+01 9.449432125252877595e+05
1.391109999999999935e+01 9.478605505993086845e+05
1.394650000000000034e+01 9.517774078911317047e+05
1.398189999999999955e+01 9.559728536459226161e+05
1.401730000000000054e+01 9.597353661124706268e+05
1.405269999999999975e+01 9.627372506110148970e+05
1.408810000000000073e+01 9.648495386358085088e+05
