# energy(eV) alpha
0.000000000000000000e+00 0.000000000000000000e+00
3.520000000000000212e-02 6.130282164760848529e-01
7.040000000000000424e-02 2.390693555529024295e+00
1.057000000000000023e-01 5.429763872073470665e+00
1.408999999999999975e-01 9.567828555042718008e+00
1.761000000000000065e-01 1.517542325059422836e+01
2.112999999999999878e-01 2.169984584032138031e+01
2.464999999999999969e-01 2.959939060907187525e+01
2.817999999999999949e-01 3.873334157208947204e+01
3.170000000000000040e-01 4.934985981474402905e+01
3.522000000000000131e-01 6.093790433852357324e+01
3.874000000000000221e-01 7.407736010727897735e+01
4.227000000000000202e-01 8.851139846254929466e+01
4.578999999999999737e-01 1.037988576984556346e+02
4.930999999999999828e-01 1.211488232460539365e+02
5.282999999999999918e-01 1.393654360305543491e+02
5.635000000000000009e-01 1.593317549537763398e+02
5.987999999999999989e-01 1.806445372161978753e+02
6.340000000000000080e-01 2.032425620931743140e+02
6.692000000000000171e-01 2.277283429648181539e+02
7.044000000000000261e-01 2.535778434066409091e+02
7.396000000000000352e-01 2.807870814683612366e+02
7.749000000000000332e-01 3.107248109172447812e+02
8.101000000000000423e-01 3.406948364867914165e+02
8.453000000000000513e-01 3.734616474764842451e+02
8.804999999999999494e-01 4.076801607836477501e+02
9.157999999999999474e-01 4.441841848403868198e+02
9.509999999999999565e-01 4.821362638799888032e+02
9.861999999999999655e-01 5.232701577137715958e+02
1.021400000000000086e+00 5.642457970302369858e+02
1.056599999999999984e+00 6.094094274534945725e+02
1.091900000000000093e+00 6.572025638998031809e+02
1.127099999999999991e+00 7.056503179495857694e+02
1.162300000000000111e+00 7.567030576947161080e+02
1.197500000000000009e+00 8.114592816907635324e+02
1.232699999999999907e+00 8.690165142950123709e+02
1.268000000000000016e+00 9.295266466195629391e+02
1.303199999999999914e+00 9.918075838323701419e+02
1.338400000000000034e+00 1.059314484163082625e+03
1.373599999999999932e+00 1.127628855674345687e+03
1.408800000000000052e+00 1.201425022913858811e+03
1.444099999999999939e+00 1.279781837316786550e+03
1.479300000000000059e+00 1.358935570060120199e+03
1.514499999999999957e+00 1.443971618039809073e+03
1.549700000000000077e+00 1.535095468161509189e+03
1.584999999999999964e+00 1.629975891688906131e+03
1.620200000000000085e+00 1.729810073122231870e+03
1.655399999999999983e+00 1.836199157095666123e+03
1.690600000000000103e+00 1.946545024701870034e+03
1.725800000000000001e+00 2.065171596213705925e+03
1.761100000000000110e+00 2.189553216787149722e+03
1.796300000000000008e+00 2.322544032769337718e+03
1.831499999999999906e+00 2.466007233213710606e+03
1.866700000000000026e+00 2.615639471495363523e+03
1.901899999999999924e+00 2.776252014093618527e+03
1.937200000000000033e+00 2.946660129578343913e+03
1.972399999999999931e+00 3.130015311766305786e+03
2.007600000000000051e+00 3.326823533720882097e+03
2.042800000000000171e+00 3.537377997429000970e+03
2.077999999999999847e+00 3.765359428151237353e+03
2.113300000000000178e+00 4.014821392132270375e+03
2.148499999999999854e+00 4.282370171162850966e+03
2.183699999999999974e+00 4.572095833984871206e+03
2.218900000000000095e+00 4.895119919643540015e+03
2.254199999999999982e+00 5.245211808552842740e+03
2.289400000000000102e+00 5.635105208579452665e+03
2.324600000000000222e+00 6.069530886711710082e+03
2.359799999999999898e+00 6.554796681203320986e+03
2.395000000000000018e+00 7.106857005700973787e+03
2.430299999999999905e+00 7.734645754354112796e+03
2.465500000000000025e+00 8.461620288315134530e+03
2.500700000000000145e+00 9.310657020278391428e+03
2.535899999999999821e+00 1.032215396355409575e+04
2.571099999999999941e+00 1.154688218269461504e+04
2.606399999999999828e+00 1.307027745257554670e+04
2.641599999999999948e+00 1.500331008979415310e+04
2.676800000000000068e+00 1.752413246491320024e+04
2.712000000000000188e+00 2.086206939516619605e+04
2.747300000000000075e+00 2.529219980386061434e+04
2.782500000000000195e+00 3.111702376580308919e+04
2.817699999999999871e+00 3.852946075804618158e+04
2.852899999999999991e+00 4.740839086006952130e+04
2.888100000000000112e+00 5.704538703697984602e+04
2.923399999999999999e+00 6.619145452112118073e+04
2.958600000000000119e+00 7.369142972650963929e+04
2.993799999999999795e+00 7.963477298131784482e+04
3.028999999999999915e+00 8.548465157839964377e+04
3.064200000000000035e+00 9.193663158757421479e+04
3.099499999999999922e+00 9.835352731477265479e+04
3.134700000000000042e+00 1.041364420535446698e+05
3.169900000000000162e+00 1.090192500809460471e+05
3.205099999999999838e+00 1.127440515407931816e+05
3.240299999999999958e+00 1.154778836304180877e+05
3.275599999999999845e+00 1.181027387220634264e+05
3.310799999999999965e+00 1.216967591963413288e+05
3.346000000000000085e+00 1.268814044328620657e+05
3.381200000000000205e+00 1.336506241017000575e+05
3.416500000000000092e+00 1.411188635887850542e+05
3.451700000000000212e+00 1.482443308856931981e+05
3.486899999999999888e+00 1.546846348330717010e+05
3.522100000000000009e+00 1.604994929673958977e+05
3.557300000000000129e+00 1.658191570742229524e+05
3.592600000000000016e+00 1.711391137545776437e+05
3.627800000000000136e+00 1.769701360504685726e+05
3.662999999999999812e+00 1.834501940702125430e+05
3.698199999999999932e+00 1.901906459665415750e+05
3.733400000000000052e+00 1.967736144383540086e+05
3.768699999999999939e+00 2.032932720102996682e+05
3.803900000000000059e+00 2.099906722220844822e+05
3.839100000000000179e+00 2.165956310466531140e+05
3.874299999999999855e+00 2.221607213494821917e+05
3.909499999999999975e+00 2.256334670364886406e+05
3.944799999999999862e+00 2.264243519801942457e+05
3.979999999999999982e+00 2.250605193467907957e+05
4.015200000000000102e+00 2.230994574053503165e+05
4.050399999999999778e+00 2.219156630543026258e+05
4.085700000000000109e+00 2.219887914598712232e+05
4.120899999999999785e+00 2.232393135588480509e+05
4.156100000000000350e+00 2.257190497724140878e+05
4.191300000000000026e+00 2.297819125774952408e+05
4.226499999999999702e+00 2.355917343266641547e+05
4.261800000000000033e+00 2.429494772346257232e+05
4.296999999999999709e+00 2.517494321199430269e+05
4.332200000000000273e+00 2.620552705959010054e+05
4.367399999999999949e+00 2.738402048370681587e+05
4.402599999999999625e+00 2.871143391789106536e+05
4.437899999999999956e+00 3.017409400860980968e+05
4.473099999999999632e+00 3.172313259977115085e+05
4.508300000000000196e+00 3.327991693240410532e+05
4.543499999999999872e+00 3.478617721728459001e+05
4.578800000000000203e+00 3.622230083257794613e+05
4.613999999999999879e+00 3.755219915055657621e+05
4.649200000000000443e+00 3.873984101426122943e+05
4.684400000000000119e+00 3.978975783901853720e+05
4.719599999999999795e+00 4.073064116123031126e+05
4.754900000000000126e+00 4.158801251185064320e+05
4.790099999999999802e+00 4.236010969051350257e+05
4.825300000000000367e+00 4.303706193587178132e+05
4.860500000000000043e+00 4.363332528066649684e+05
4.895699999999999719e+00 4.417322365408233600e+05
4.931000000000000050e+00 4.465420827917306451e+05
4.966199999999999726e+00 4.509611111345996032e+05
5.001400000000000290e+00 4.553467420572286355e+05
5.036599999999999966e+00 4.598018136089271866e+05
5.071799999999999642e+00 4.644345362044092617e+05
5.107099999999999973e+00 4.691675696379787987e+05
5.142299999999999649e+00 4.733584059122464969e+05
5.177500000000000213e+00 4.764525707903830917e+05
5.212699999999999889e+00 4.783476127238307381e+05
5.248000000000000220e+00 4.794305905813824502e+05
5.283199999999999896e+00 4.802905161756412708e+05
5.318399999999999572e+00 4.812264467109589023e+05
5.353600000000000136e+00 4.819538184541368973e+05
5.388799999999999812e+00 4.819998375467555015e+05
5.424100000000000144e+00 4.810351927370311460e+05
5.459299999999999820e+00 4.787171965700509609e+05
5.494500000000000384e+00 4.749003588281868142e+05
5.529700000000000060e+00 4.700508494182343711e+05
5.564899999999999736e+00 4.650969672026461340e+05
5.600200000000000067e+00 4.609234591590074706e+05
5.635399999999999743e+00 4.581006545326262712e+05
5.670600000000000307e+00 4.570457330695465207e+05
5.705799999999999983e+00 4.580629159904244007e+05
5.740999999999999659e+00 4.610740380935696303e+05
5.776299999999999990e+00 4.655505505432439386e+05
5.811499999999999666e+00 4.710175228308841470e+05
5.846700000000000230e+00 4.775575725454575731e+05
5.881899999999999906e+00 4.854957837427289924e+05
5.917200000000000237e+00 4.951907197128810803e+05
5.952399999999999913e+00 5.066326421421492705e+05
5.987599999999999589e+00 5.195006020361332921e+05
6.022800000000000153e+00 5.336837732105695177e+05
6.057999999999999829e+00 5.492399460488118930e+05
6.093300000000000161e+00 5.660022626001096796e+05
6.128499999999999837e+00 5.837361874196656281e+05
6.163700000000000401e+00 6.024737813025842188e+05
6.198900000000000077e+00 6.221923451433394803e+05
6.234099999999999753e+00 6.424799556646243436e+05
6.269400000000000084e+00 6.628901482057749527e+05
6.304599999999999760e+00 6.834042076829298167e+05
6.339800000000000324e+00 7.041314205450187437e+05
6.375000000000000000e+00 7.246460461865939433e+05
6.410300000000000331e+00 7.440318585213420447e+05
6.445500000000000007e+00 7.615798380449216347e+05
6.480699999999999683e+00 7.773074002691509668e+05
6.515900000000000247e+00 7.912283702111743623e+05
6.551099999999999923e+00 8.030240426885938505e+05
6.586400000000000254e+00 8.124626528396591311e+05
6.621599999999999930e+00 8.196677167498361086e+05
6.656799999999999606e+00 8.248470839102820028e+05
6.692000000000000171e+00 8.282031784206379671e+05
6.727199999999999847e+00 8.301882338602747768e+05
6.762500000000000178e+00 8.315410417333173100e+05
6.797699999999999854e+00 8.329324122124757851e+05
6.832900000000000418e+00 8.344223781076485757e+05
6.868100000000000094e+00 8.355573614095846424e+05
6.903299999999999770e+00 8.361180503789413488e+05
6.938600000000000101e+00 8.360705530496111605e+05
6.973799999999999777e+00 8.354218573676677188e+05
7.009000000000000341e+00 8.341857208818589570e+05
7.044200000000000017e+00 8.327198817201978527e+05
7.079500000000000348e+00 8.316734227467279416e+05
7.114700000000000024e+00 8.311874973328432534e+05
7.149899999999999700e+00 8.309272409761425806e+05
7.185100000000000264e+00 8.307500119560409803e+05
7.220299999999999940e+00 8.308631490013886942e+05
7.255600000000000271e+00 8.314102356541546760e+05
7.290799999999999947e+00 8.322434531541781034e+05
7.325999999999999623e+00 8.334351555756431771e+05
7.361200000000000188e+00 8.353699215834554052e+05
7.396399999999999864e+00 8.385203636730490252e+05
7.431700000000000195e+00 8.429107330096270889e+05
7.466899999999999871e+00 8.479273297679284588e+05
7.502100000000000435e+00 8.529267309444904095e+05
7.537300000000000111e+00 8.577399807806472527e+05
7.572600000000000442e+00 8.626081068841110682e+05
7.607800000000000118e+00 8.679766104356981814e+05
7.642999999999999794e+00 8.741505073911895743e+05
7.678200000000000358e+00 8.808935939767719246e+05
7.713400000000000034e+00 8.876362755733067170e+05
7.748700000000000365e+00 8.938276692341346061e+05
7.783900000000000041e+00 8.989775049406435573e+05
7.819099999999999717e+00 9.027274181084034499e+05
7.854300000000000281e+00 9.051799151749582961e+05
7.889499999999999957e+00 9.064990622039193986e+05
7.924800000000000288e+00 9.068695397811229341e+05
7.959999999999999964e+00 9.064314533567624167e+05
7.995199999999999640e+00 9.053287364948727190e+05
8.030400000000000205e+00 9.037283553457168164e+05
8.065599999999999881e+00 9.020305697426173138e+05
8.100899999999999324e+00 9.004535249089163262e+05
8.136100000000000776e+00 8.988483153914945433e+05
8.171300000000000452e+00 8.971375932149584405e+05
8.206500000000000128e+00 8.956802382336882874e+05
8.241799999999999571e+00 8.950720839994243579e+05
8.276999999999999247e+00 8.954560158311347477e+05
8.312200000000000699e+00 8.964789318444636883e+05
8.347400000000000375e+00 8.978209700456684222e+05
8.382600000000000051e+00 8.994533400217539165e+05
8.417899999999999494e+00 9.011953176051158225e+05
8.453099999999999170e+00 9.027643195525661577e+05
8.488300000000000622e+00 9.041923825169587508e+05
8.523500000000000298e+00 9.059037190333785256e+05
8.558699999999999974e+00 9.082350887818104820e+05
8.593999999999999417e+00 9.110979357438531006e+05
8.629200000000000870e+00 9.141945677633904852e+05
8.664400000000000546e+00 9.173082252256278880e+05
8.699600000000000222e+00 9.203437370495212963e+05
8.734799999999999898e+00 9.235028955912280362e+05
8.770099999999999341e+00 9.266986015106216073e+05
8.805300000000000793e+00 9.294085992970077787e+05
8.840500000000000469e+00 9.313814082329216180e+05
8.875700000000000145e+00 9.327219828837714158e+05
8.910999999999999588e+00 9.334740889731182251e+05
8.946199999999999264e+00 9.338389400159789948e+05
8.981400000000000716e+00 9.340571910203251755e+05
9.016600000000000392e+00 9.341355822830548277e+05
9.051800000000000068e+00 9.341116572095328011e+05
9.087099999999999511e+00 9.340775872268046951e+05
9.122299999999999187e+00 9.339962370608912315e+05
9.157500000000000639e+00 9.335458094574271236e+05
9.192700000000000315e+00 9.322930848048561020e+05
9.227899999999999991e+00 9.303439916117072571e+05
9.263199999999999434e+00 9.280411336645062547e+05
9.298400000000000887e+00 9.255414110604181187e+05
9.333600000000000563e+00 9.227040726770570036e+05
9.368800000000000239e+00 9.192556093468349427e+05
9.404099999999999682e+00 9.153284423629813828e+05
9.439299999999999358e+00 9.111429561226322548e+05
9.474500000000000810e+00 9.068870594873046502e+05
9.509700000000000486e+00 9.028034636504731607e+05
9.544900000000000162e+00 8.991189965607883641e+05
9.580199999999999605e+00 8.958423919273818610e+05
9.615399999999999281e+00 8.926205504415577743e+05
9.650600000000000733e+00 8.894371887649329146e+05
9.685800000000000409e+00 8.866009325385435950e+05
9.721000000000000085e+00 8.842707147945644101e+05
9.756299999999999528e+00 8.821146248236463871e+05
9.791499999999999204e+00 8.798305044896423351e+05
9.826700000000000657e+00 8.776283409229535609e+05
9.861900000000000333e+00 8.759990855967550306e+05
9.897100000000000009e+00 8.753125497645419091e+05
9.932399999999999451e+00 8.755223814100553282e+05
9.967599999999999127e+00 8.764726332922540605e+05
1.000280000000000058e+01 8.782531869904922787e+05
1.003800000000000026e+01 8.809452627244398464e+05
1.007329999999999970e+01 8.844643646450059023e+05
1.010849999999999937e+01 8.884667354856894817e+05
1.014370000000000083e+01 8.927347179632456973e+05
1.017890000000000050e+01 8.970015472310044570e+05
1.021410000000000018e+01 9.008964849262736971e+05
1.024939999999999962e+01 9.040935881061730906e+05
1.028459999999999930e+01 9.067229116853007581e+05
1.031980000000000075e+01 9.087903700164149050e+05
1.035500000000000043e+01 9.094453078377194470e+05
1.039020000000000010e+01 9.077262835131299216e+05
1.042549999999999955e+01 9.034286604465778219e+05
1.046069999999999922e+01 8.969577145494587021e+05
1.049590000000000067e+01 8.890820637225325918e+05
1.053110000000000035e+01 8.807886380013315938e+05
1.056630000000000003e+01 8.730338623461228563e+05
1.060159999999999947e+01 8.660286371016241610e+05
1.063679999999999914e+01 8.598058326891076285e+05
1.067200000000000060e+01 8.545214557013957528e+05
1.070720000000000027e+01 8.495488829050346976e+05
1.074249999999999972e+01 8.438518817873621592e+05
1.077769999999999939e+01 8.367262603983068839e+05
1.081290000000000084e+01 8.284895987208172446e+05
1.084810000000000052e+01 8.202247185086287791e+05
1.088330000000000020e+01 8.127982961525022984e+05
1.091859999999999964e+01 8.064029865401062416e+05
1.095379999999999932e+01 8.007671696433648467e+05
1.098900000000000077e+01 7.953606322052750038e+05
1.102420000000000044e+01 7.898769084715483477e+05
1.105940000000000012e+01 7.839616737439917633e+05
1.109469999999999956e+01 7.776935380805295426e+05
1.112989999999999924e+01 7.713821116388718365e+05
1.116510000000000069e+01 7.653491003427321557e+05
1.120030000000000037e+01 7.597044895008946769e+05
1.123559999999999981e+01 7.544428306099097244e+05
1.127079999999999949e+01 7.497473927004555007e+05
1.130599999999999916e+01 7.459309506281646900e+05
1.134120000000000061e+01 7.429957589751791675e+05
1.137640000000000029e+01 7.408005115133499494e+05
1.141169999999999973e+01 7.393495691939090611e+05
1.144689999999999941e+01 7.383802699988642707e+05
1.148210000000000086e+01 7.377435432137568714e+05
1.151730000000000054e+01 7.374905818665469997e+05
1.155250000000000021e+01 7.376451342954916181e+05
1.158779999999999966e+01 7.382343453131929273e+05
1.162299999999999933e+01 7.390851664055816364e+05
1.165820000000000078e+01 7.401692037138227606e+05
1.169340000000000046e+01 7.415740249631254701e+05
1.172860000000000014e+01 7.434701069642606890e+05
1.176389999999999958e+01 7.460336515056133503e+05
1.179909999999999926e+01 7.492846607765993103e+05
1.183430000000000071e+01 7.531933961148601957e+05
1.186950000000000038e+01 7.575555583590797614e+05
1.190479999999999983e+01 7.623244823658287060e+05
1.193999999999999950e+01 7.674595541986365570e+05
1.197519999999999918e+01 7.725811470185130602e+05
1.201040000000000063e+01 7.772311551050536800e+05
1.204560000000000031e+01 7.812733742479640059e+05
1.208089999999999975e+01 7.848038763904618099e+05
1.211609999999999943e+01 7.879720666959800292e+05
1.215130000000000088e+01 7.910371245538134826e+05
1.218650000000000055e+01 7.943240859032780863e+05
1.222170000000000023e+01 7.981081840494215721e+05
1.225699999999999967e+01 8.022976155025385087e+05
1.229219999999999935e+01 8.066451703881527064e+05
1.232740000000000080e+01 8.112005238303716760e+05
1.236260000000000048e+01 8.161170452770405682e+05
1.239780000000000015e+01 8.210705953126852401e+05
1.243309999999999960e+01 8.257713608217200963e+05
1.246829999999999927e+01 8.296562082062175032e+05
1.250350000000000072e+01 8.320282223827996058e+05
1.253870000000000040e+01 8.323548614537359681e+05
1.257399999999999984e+01 8.305356145919226110e+05
1.260919999999999952e+01 8.269758574191272492e+05
1.264439999999999920e+01 8.221958707249116851e+05
1.267960000000000065e+01 8.172801594315933762e+05
1.271480000000000032e+01 8.131760542651978321e+05
1.275009999999999977e+01 8.101745202777995728e+05
1.278529999999999944e+01 8.078266348740422400e+05
1.282049999999999912e+01 8.057192924162894487e+05
1.285570000000000057e+01 8.035660817627960350e+05
1.289090000000000025e+01 8.014281465349930804e+05
1.292619999999999969e+01 7.996251645338239614e+05
1.296139999999999937e+01 7.985664245268768864e+05
1.299660000000000082e+01 7.983201664630651940e+05
1.303180000000000049e+01 7.985456178802596405e+05
1.306709999999999994e+01 7.985627059022944886e+05
1.310229999999999961e+01 7.980982601742952829e+05
1.313749999999999929e+01 7.975432807452755515e+05
1.317270000000000074e+01 7.974213349190305453e+05
1.320790000000000042e+01 7.983259364519771188e+05
1.324319999999999986e+01 8.006709389865231933e+05
1.327839999999999954e+01 8.043633627236596076e+05
1.331359999999999921e+01 8.093539312773181591e+05
1.334880000000000067e+01 8.156067203926466173e+05
1.338400000000000034e+01 8.233210848814429482e+05
1.341929999999999978e+01 8.323349581560685765e+05
1.345449999999999946e+01 8.422856969438017113e+05
1.348969999999999914e+01 8.523493266241945093e+05
1.352490000000000059e+01 8.619494017373016104e+05
1.356010000000000026e+01 8.708255895755547099e+05
1.359539999999999971e+01 8.788742038747938350e+05
1.363059999999999938e+01 8.857914752018667059e+05
1.366580000000000084e+01 8.912768152525104815e+05
1.370100000000000051e+01 8.954437626011706889e+05
1.373629999999999995e+01 8.989401983983179089e+05
1.377149999999999963e+01 9.021812599574124906e+05
1.380669999999999931e+01 9.051107764713497600e+05
1.384190000000000076e+01 9.076783823738595238e+05
1.387710000000000043e+01 9.100094890857863938e+05
1.391239999999999988e+01 9.125244217136531370e+05
1.394759999999999955e+01 9.154935025443756022e+05
1.398279999999999923e+01 9.188118579883869970e+05
1.401800000000000068e+01 9.224882628888656618e+05
