# energy(eV) alpha
0.000000000000000000e+00 0.000000000000000000e+00
1.005000000000000060e-01 2.122111988864429311e+00
2.010000000000000120e-01 7.880734114612701902e+00
3.014000000000000012e-01 1.817480609333407671e+01
4.018999999999999795e-01 3.149279191485599583e+01
5.023999999999999577e-01 4.994052128319389539e+01
6.028999999999999915e-01 7.259700869651811672e+01
7.034000000000000252e-01 9.944358127112403167e+01
8.037999999999999590e-01 1.304452987716711903e+02
9.042999999999999927e-01 1.656099820907054436e+02
1.004799999999999915e+00 2.079112491964094716e+02
1.105299999999999949e+00 2.548975882069047998e+02
1.205799999999999983e+00 3.065317672211731974e+02
1.306200000000000028e+00 3.627452719933567664e+02
1.406700000000000061e+00 4.277332953430047837e+02
1.507200000000000095e+00 4.978088694272255452e+02
1.607699999999999907e+00 5.776866459875305964e+02
1.708199999999999941e+00 6.630928107777283458e+02
1.808599999999999985e+00 7.539081074775256184e+02
1.909100000000000019e+00 8.613619906069917533e+02
2.009599999999999831e+00 9.751983537574541288e+02
2.110100000000000087e+00 1.101476276083538778e+03
2.210599999999999898e+00 1.234395310257889832e+03
2.310999999999999943e+00 1.387193281956977216e+03
2.411500000000000199e+00 1.561433509446390417e+03
2.512000000000000011e+00 1.743870759440746951e+03
2.612499999999999822e+00 1.956789248939420986e+03
2.713000000000000078e+00 2.194417853890388415e+03
2.813400000000000123e+00 2.457746411989699482e+03
2.913899999999999935e+00 2.756226603331490878e+03
3.014400000000000190e+00 3.099768616291124090e+03
3.114900000000000002e+00 3.499241048688198134e+03
3.215399999999999814e+00 3.974876866704507393e+03
3.315799999999999859e+00 4.538907325680147551e+03
3.416300000000000114e+00 5.250951343233619809e+03
3.516799999999999926e+00 6.192811186591851765e+03
3.617300000000000182e+00 7.557254325610033447e+03
3.717799999999999994e+00 9.972288636634046270e+03
3.818200000000000038e+00 1.438974305342220214e+04
3.918699999999999850e+00 1.928985986586871877e+04
4.019199999999999662e+00 2.595657045286934590e+04
4.119699999999999918e+00 4.122644633488411637e+04
4.220200000000000173e+00 4.246446569118210027e+04
4.320599999999999774e+00 5.895327937491477496e+04
4.421100000000000030e+00 6.020993193425045320e+04
4.521600000000000286e+00 6.820322204307960055e+04
4.622099999999999653e+00 8.239175022857850126e+04
4.722599999999999909e+00 8.221307101390579192e+04
4.823000000000000398e+00 9.214119891317386646e+04
4.923499999999999766e+00 1.219452781918655237e+05
5.024000000000000021e+00 1.469807868630058656e+05
5.124500000000000277e+00 1.473988882040807803e+05
5.224999999999999645e+00 1.555179821523682040e+05
5.325400000000000134e+00 2.050472327401118237e+05
5.425900000000000389e+00 2.539636358129517757e+05
5.526399999999999757e+00 3.360466350278021418e+05
5.626900000000000013e+00 4.007535839560970780e+05
5.727400000000000269e+00 4.083002032986226259e+05
5.827799999999999869e+00 3.625676388982887729e+05
5.928300000000000125e+00 4.256318149508811184e+05
6.028800000000000381e+00 5.877563780543942703e+05
6.129299999999999748e+00 6.474439224377338542e+05
6.229800000000000004e+00 7.736645677057753783e+05
6.330199999999999605e+00 7.619942965265593957e+05
6.430699999999999861e+00 7.134010899618874537e+05
6.531200000000000117e+00 7.374971500415566843e+05
6.631700000000000372e+00 6.808175250674019335e+05
6.732199999999999740e+00 6.649831833846938098e+05
6.832600000000000229e+00 6.637329401330552064e+05
6.933099999999999596e+00 6.745880677203175146e+05
7.033599999999999852e+00 6.628480684197070077e+05
7.134100000000000108e+00 6.045098901952370070e+05
7.234600000000000364e+00 5.877217898200331256e+05
7.334999999999999964e+00 6.056824441935699433e+05
7.435500000000000220e+00 6.177131612095669843e+05
7.535999999999999588e+00 6.415355668851905502e+05
7.636499999999999844e+00 6.807291548090046272e+05
7.737000000000000099e+00 6.764138107815267285e+05
7.837399999999999700e+00 7.653629072625871049e+05
7.937899999999999956e+00 8.562140465043354779e+05
8.038399999999999324e+00 8.910674375801016577e+05
8.138899999999999579e+00 9.716197961408104748e+05
8.239399999999999835e+00 9.412610319804019528e+05
8.339800000000000324e+00 8.501777280549913412e+05
8.440300000000000580e+00 8.114248899940544507e+05
8.540800000000000836e+00 7.753155254153627902e+05
8.641299999999999315e+00 7.333072647142230999e+05
8.741799999999999571e+00 6.705004989977447549e+05
8.842200000000000060e+00 5.971004999429559102e+05
8.942700000000000315e+00 5.175685928597205202e+05
9.043200000000000571e+00 5.044036580780092045e+05
9.143700000000000827e+00 5.380402560960074188e+05
9.244199999999999307e+00 5.860404711043975549e+05
9.344599999999999795e+00 6.123109181479526451e+05
9.445100000000000051e+00 5.893004366804410238e+05
9.545600000000000307e+00 5.731727325517171994e+05
9.646100000000000563e+00 6.073744104047151050e+05
9.746600000000000819e+00 5.975077958032276947e+05
9.846999999999999531e+00 6.013275759373329347e+05
9.947499999999999787e+00 5.822178056516519282e+05
1.004800000000000004e+01 5.600931045876927674e+05
1.014850000000000030e+01 5.806256829962404445e+05
1.024900000000000055e+01 5.659386622936057393e+05
1.034939999999999927e+01 5.912430422670744592e+05
1.044989999999999952e+01 5.800415503215941135e+05
1.055039999999999978e+01 5.358616094755386002e+05
1.065090000000000003e+01 5.605112083720561350e+05
1.075140000000000029e+01 6.110838130033978960e+05
1.085180000000000078e+01 6.855368165609710850e+05
1.095229999999999926e+01 7.144051840687207878e+05
1.105279999999999951e+01 6.706756070930273272e+05
1.115329999999999977e+01 6.222071202919196803e+05
1.125380000000000003e+01 5.834934688626116840e+05
1.135420000000000051e+01 5.911678275824952871e+05
1.145470000000000077e+01 5.467218336511458037e+05
1.155519999999999925e+01 6.484771216927757487e+05
1.165569999999999951e+01 6.470358541392323095e+05
1.175619999999999976e+01 5.835812300971826771e+05
1.185660000000000025e+01 5.573894111131328391e+05
1.195710000000000051e+01 5.582778888020492159e+05
1.205760000000000076e+01 5.608232212322446285e+05
1.215809999999999924e+01 5.536385256924532587e+05
1.225859999999999950e+01 5.880983572608168470e+05
1.235909999999999975e+01 6.469752826304297196e+05
1.245950000000000024e+01 7.328719922269257950e+05
1.256000000000000050e+01 7.694033872462529689e+05
1.266050000000000075e+01 7.521461725008338690e+05
1.276099999999999923e+01 7.710196348402319709e+05
1.286149999999999949e+01 8.371565826971444767e+05
1.296189999999999998e+01 8.695037313854858512e+05
1.306240000000000023e+01 8.538662948384882184e+05
1.316290000000000049e+01 7.964170768264607759e+05
1.326340000000000074e+01 7.941579357542676153e+05
1.336389999999999922e+01 8.095656037886202103e+05
1.346429999999999971e+01 7.966041540031243348e+05
1.356479999999999997e+01 7.059252489602055866e+05
1.366530000000000022e+01 6.489623800807137741e+05
1.376580000000000048e+01 6.260312345245736651e+05
1.386630000000000074e+01 5.392691396070709452e+05
1.396669999999999945e+01 4.787347098561645253e+05
1.406719999999999970e+01 4.547085200323519530e+05
1.416769999999999996e+01 4.631496861925739213e+05
1.426820000000000022e+01 4.571991872995450394e+05
1.436870000000000047e+01 4.380861533918469213e+05
1.446909999999999918e+01 4.571172374558434822e+05
1.456959999999999944e+01 4.705239944435466314e+05
1.467009999999999970e+01 5.289285744727839483e+05
1.477059999999999995e+01 5.647847646721791243e+05
1.487110000000000021e+01 5.363317833009370370e+05
1.497150000000000070e+01 5.630126877071700292e+05
1.507199999999999918e+01 6.209693065029587597e+05
1.517249999999999943e+01 6.485533793350368505e+05
1.527299999999999969e+01 6.696042471050750464e+05
1.537349999999999994e+01 6.765029212450095220e+05
1.547390000000000043e+01 6.457019042766388739e+05
1.557440000000000069e+01 6.241276132443589158e+05
1.567489999999999917e+01 6.437433025339794112e+05
1.577539999999999942e+01 7.485363621271891752e+05
1.587589999999999968e+01 9.291165171456042444e+05
1.597630000000000017e+01 1.144434272435242543e+06
1.607679999999999865e+01 1.355593351801380981e+06
1.617729999999999890e+01 1.432211077182104345e+06
1.627779999999999916e+01 1.348078335474086227e+06
1.637829999999999941e+01 1.377938481354344403e+06
1.647869999999999990e+01 1.527285687828199938e+06
1.657920000000000016e+01 1.437970038844230818e+06
1.667970000000000041e+01 1.364856556796499994e+06
1.678020000000000067e+01 1.314352887750701513e+06
1.688070000000000093e+01 1.225697097690493101e+06
1.698110000000000142e+01 1.133901656454654876e+06
1.708160000000000167e+01 1.097959174924005754e+06
1.718209999999999837e+01 1.149600581047712360e+06
1.728259999999999863e+01 1.290733302812697366e+06
1.738309999999999889e+01 1.386056059006135678e+06
1.748349999999999937e+01 1.433166197806235170e+06
1.758399999999999963e+01 1.505653116287783720e+06
1.768449999999999989e+01 1.584267598943311488e+06
1.778500000000000014e+01 1.824452451213041786e+06
1.788550000000000040e+01 1.912338035719162319e+06
1.798590000000000089e+01 1.812076978520787554e+06
1.808640000000000114e+01 1.676255816292426549e+06
1.818690000000000140e+01 1.731763051219353918e+06
1.828740000000000165e+01 1.785679507677584887e+06
1.838789999999999836e+01 1.723390532122278353e+06
1.848829999999999885e+01 1.651701853521080222e+06
1.858879999999999910e+01 1.581007180249945028e+06
1.868929999999999936e+01 1.435915895824234700e+06
1.878979999999999961e+01 1.212556775934719481e+06
1.889029999999999987e+01 1.121183469023698475e+06
1.899070000000000036e+01 1.220089081463577924e+06
1.909120000000000061e+01 1.162789487752794754e+06
1.919170000000000087e+01 1.029840222239467432e+06
1.929220000000000113e+01 1.042565508178387303e+06
1.939270000000000138e+01 1.039624050859064562e+06
1.949309999999999832e+01 1.011237546557568596e+06
1.959359999999999857e+01 9.408719963174901204e+05
1.969409999999999883e+01 8.415195615359795047e+05
1.979459999999999908e+01 8.496035665394255193e+05
1.989509999999999934e+01 8.693591600792729296e+05
1.999549999999999983e+01 8.304225125341353705e+05
2.009600000000000009e+01 7.960971715658237226e+05
2.019650000000000034e+01 8.134816392292580567e+05
2.029700000000000060e+01 8.095842673321075272e+05
2.039750000000000085e+01 9.181034002493293956e+05
2.049790000000000134e+01 9.518384280757429078e+05
2.059840000000000160e+01 8.940500225519499509e+05
2.069889999999999830e+01 8.325888586061482783e+05
2.079939999999999856e+01 7.804639162954329513e+05
2.089989999999999881e+01 7.139573433224803302e+05
2.100029999999999930e+01 6.121635836988084484e+05
2.110079999999999956e+01 5.938201192017653957e+05
2.120129999999999981e+01 6.013385629843110219e+05
2.130180000000000007e+01 6.216903842621317599e+05
2.140230000000000032e+01 5.642529634797769831e+05
2.150270000000000081e+01 5.201846165665583685e+05
2.160320000000000107e+01 5.801731568946554326e+05
2.170370000000000132e+01 5.676339044417873956e+05
2.180420000000000158e+01 5.356645038493535249e+05
2.190469999999999828e+01 4.779039188040682347e+05
2.200509999999999877e+01 4.952653439479442313e+05
2.210559999999999903e+01 5.204249577602035715e+05
2.220609999999999928e+01 6.184807789944934193e+05
2.230659999999999954e+01 7.311245666881143115e+05
2.240709999999999980e+01 6.967927364892202895e+05
2.250750000000000028e+01 7.562362759047854925e+05
2.260800000000000054e+01 7.946514938692760188e+05
2.270850000000000080e+01 7.900587124329515500e+05
2.280900000000000105e+01 7.441773682647116948e+05
2.290950000000000131e+01 7.195229376719561405e+05
2.300989999999999824e+01 7.202123589856671169e+05
2.311039999999999850e+01 7.156380550012806198e+05
2.321089999999999876e+01 6.704726966756701004e+05
2.331139999999999901e+01 5.804425623766223434e+05
2.341189999999999927e+01 5.058052451406507753e+05
2.351229999999999976e+01 4.627695317059044028e+05
2.361280000000000001e+01 4.145073126843680511e+05
2.371330000000000027e+01 3.978722773455525748e+05
2.381380000000000052e+01 3.986615087880553328e+05
2.391430000000000078e+01 4.002364721294623450e+05
2.401470000000000127e+01 3.878318343692716444e+05
2.411520000000000152e+01 3.845419067219644785e+05
2.421569999999999823e+01 3.763831473655112204e+05
2.431619999999999848e+01 3.393368070434188121e+05
2.441669999999999874e+01 3.029575258144513355e+05
2.451709999999999923e+01 2.864308964572437690e+05
2.461759999999999948e+01 3.099128258809960098e+05
2.471809999999999974e+01 2.751584355976886000e+05
2.481859999999999999e+01 2.434754411667656095e+05
2.491910000000000025e+01 2.380831817691453907e+05
2.501950000000000074e+01 2.413084732658135181e+05
2.512000000000000099e+01 2.335245770969808800e+05
2.522050000000000125e+01 2.298899777792788518e+05
2.532100000000000151e+01 2.141872645559090888e+05
2.542150000000000176e+01 2.110566980414752034e+05
2.552189999999999870e+01 2.288892234963962401e+05
2.562239999999999895e+01 2.621367334389450261e+05
2.572289999999999921e+01 2.861512750499253743e+05
2.582339999999999947e+01 2.837338237684093765e+05
2.592389999999999972e+01 2.803074783369080396e+05
2.602430000000000021e+01 2.733964645846983185e+05
2.612480000000000047e+01 2.721286906503165956e+05
2.622530000000000072e+01 2.608640493412097858e+05
2.632580000000000098e+01 2.349869994789710618e+05
2.642630000000000123e+01 2.268317328128402878e+05
2.652670000000000172e+01 2.138335918222996697e+05
2.662719999999999843e+01 1.941545741877559922e+05
2.672769999999999868e+01 1.700449856552976707e+05
2.682819999999999894e+01 1.671124094426910160e+05
2.692869999999999919e+01 1.749849515453385829e+05
2.702909999999999968e+01 1.870215823318518524e+05
2.712959999999999994e+01 1.951845326675454271e+05
2.723010000000000019e+01 1.903379263902205275e+05
2.733060000000000045e+01 2.025827673527229344e+05
2.743110000000000070e+01 1.830693418905749277e+05
2.753150000000000119e+01 1.691991654460549180e+05
2.763200000000000145e+01 1.642795336719196348e+05
2.773250000000000171e+01 1.603433717433038400e+05
2.783299999999999841e+01 1.423872242065735336e+05
2.793349999999999866e+01 1.433466346157449298e+05
2.803389999999999915e+01 1.442219647593424306e+05
2.813439999999999941e+01 1.366004612460130011e+05
2.823489999999999966e+01 1.364008345717582270e+05
2.833539999999999992e+01 1.417801499812215334e+05
2.843590000000000018e+01 1.365883875318155333e+05
2.853630000000000067e+01 1.434795987722426362e+05
2.863680000000000092e+01 1.341730639905984572e+05
2.873730000000000118e+01 1.466718624222598155e+05
2.883780000000000143e+01 1.372037258555465669e+05
2.893830000000000169e+01 1.276393659171348700e+05
2.903869999999999862e+01 1.194051940620257956e+05
2.913919999999999888e+01 1.128415252041260101e+05
2.923969999999999914e+01 1.202994621140211384e+05
2.934019999999999939e+01 1.278310552774153475e+05
2.944069999999999965e+01 1.256493186744829582e+05
2.954110000000000014e+01 1.318690307571518351e+05
2.964160000000000039e+01 1.280873262732134317e+05
2.974210000000000065e+01 1.365666235132249421e+05
2.984260000000000090e+01 1.421433722163135826e+05
2.994310000000000116e+01 1.343000585038210556e+05
3.004350000000000165e+01 1.336051968722489255e+05
3.014399999999999835e+01 1.267015296558437985e+05
3.024449999999999861e+01 1.201383499654418993e+05
3.034499999999999886e+01 1.011665658224630170e+05
3.044549999999999912e+01 1.010095913577587780e+05
3.054589999999999961e+01 1.049411288756382419e+05
3.064639999999999986e+01 9.638631168630612956e+04
3.074690000000000012e+01 9.264027169206480903e+04
3.084740000000000038e+01 8.789093859279486060e+04
3.094790000000000063e+01 9.227057535450070282e+04
3.104830000000000112e+01 9.542495030859157851e+04
3.114880000000000138e+01 9.306512508914653154e+04
3.124930000000000163e+01 9.852370753309223801e+04
3.134979999999999833e+01 1.011936265154681168e+05
3.145029999999999859e+01 1.031117146519300441e+05
3.155069999999999908e+01 1.053552245746872068e+05
3.165119999999999933e+01 1.002667354590647883e+05
3.175169999999999959e+01 9.341043514643778326e+04
3.185219999999999985e+01 9.041908719176627346e+04
3.195270000000000010e+01 8.890780794635826896e+04
3.205310000000000059e+01 9.135921137866408390e+04
3.215359999999999729e+01 9.716037457621168869e+04
3.225410000000000110e+01 1.007979708606575878e+05
3.235459999999999781e+01 1.054785843617790815e+05
3.245510000000000161e+01 1.066624806799913495e+05
3.255550000000000210e+01 1.034310079201607296e+05
3.265599999999999881e+01 9.620427542720927158e+04
3.275650000000000261e+01 1.052237272047875740e+05
3.285699999999999932e+01 1.164218219942736032e+05
3.295750000000000313e+01 1.004972356606784160e+05
3.305789999999999651e+01 8.745475236898013100e+04
3.315840000000000032e+01 8.754346185491576034e+04
3.325889999999999702e+01 8.011779780655135983e+04
3.335940000000000083e+01 7.445008222662493063e+04
3.345989999999999753e+01 7.406047639901729417e+04
3.356029999999999802e+01 7.471183212026339606e+04
3.366080000000000183e+01 7.517381386380195909e+04
3.376129999999999853e+01 7.799148801130597712e+04
3.386180000000000234e+01 8.307366690928809112e+04
3.396229999999999905e+01 8.478677859972673468e+04
3.406269999999999953e+01 7.811550670499443368e+04
3.416320000000000334e+01 7.456315008451856556e+04
3.426370000000000005e+01 8.121283502252092876e+04
3.436419999999999675e+01 8.189068736811414419e+04
3.446470000000000056e+01 8.176371288650043425e+04
3.456510000000000105e+01 7.705525191342143808e+04
3.466559999999999775e+01 6.895503091505849443e+04
3.476610000000000156e+01 6.796039618526805134e+04
3.486659999999999826e+01 7.297482051944039995e+04
3.496710000000000207e+01 6.576307572917372454e+04
3.506750000000000256e+01 5.995925468304685637e+04
3.516799999999999926e+01 6.002664301976879506e+04
3.526850000000000307e+01 5.689412988500711799e+04
3.536899999999999977e+01 5.348210819976218045e+04
3.546949999999999648e+01 5.451052910641130438e+04
3.556989999999999696e+01 5.822174693109335931e+04
3.567040000000000077e+01 6.203107374244734092e+04
3.577089999999999748e+01 5.994418481130513828e+04
3.587140000000000128e+01 6.041071378263656516e+04
3.597189999999999799e+01 6.673417166458569409e+04
3.607229999999999848e+01 6.185673652646421397e+04
3.617280000000000229e+01 5.556198958200294146e+04
3.627329999999999899e+01 5.557301833350719244e+04
3.637380000000000280e+01 6.127865106499493413e+04
3.647429999999999950e+01 5.667663026127817284e+04
3.657469999999999999e+01 5.820766197215470311e+04
3.667519999999999669e+01 5.813818122624699754e+04
3.677570000000000050e+01 5.679444402704716049e+04
3.687619999999999720e+01 5.772633340571377630e+04
3.697670000000000101e+01 5.871197033304320939e+04
3.707719999999999771e+01 5.633017749345101765e+04
3.717759999999999820e+01 5.684962180482806434e+04
3.727810000000000201e+01 5.806191283517585543e+04
3.737859999999999872e+01 5.420498878805141430e+04
3.747910000000000252e+01 5.303615599136360834e+04
3.757959999999999923e+01 5.147109724546448706e+04
3.767999999999999972e+01 4.710871888582850079e+04
3.778050000000000352e+01 4.610530261484327639e+04
3.788100000000000023e+01 4.683810173945662245e+04
3.798149999999999693e+01 4.393923822165896854e+04
3.808200000000000074e+01 4.380135856507283461e+04
3.818240000000000123e+01 4.195308886829479889e+04
3.828289999999999793e+01 4.181569301307759451e+04
3.838340000000000174e+01 3.910691479113499372e+04
3.848389999999999844e+01 3.613187038377339923e+04
3.858440000000000225e+01 3.832642217646586505e+04
3.868480000000000274e+01 3.839125680579350592e+04
3.878529999999999944e+01 3.996099767400516430e+04
3.888580000000000325e+01 4.133632002537241351e+04
3.898629999999999995e+01 4.207117980735991296e+04
3.908679999999999666e+01 4.258876925781751925e+04
3.918719999999999715e+01 4.310528332768101973e+04
3.928770000000000095e+01 4.494546519687323598e+04
3.938819999999999766e+01 4.418295561265608558e+04
3.948870000000000147e+01 4.184871866673680779e+04
3.958919999999999817e+01 4.366519066857454163e+04
3.968959999999999866e+01 4.641527364044458955e+04
3.979010000000000247e+01 4.455628248268587049e+04
3.989059999999999917e+01 4.242481221465325507e+04
3.999110000000000298e+01 4.338139371341079095e+04
