# energy(eV) alpha
0.000000000000000000e+00 0.000000000000000000e+00
1.005999999999999950e-01 3.325166263970812608e+00
2.013000000000000067e-01 1.274960424409116122e+01
3.019000000000000017e-01 2.908508626322439383e+01
4.026000000000000134e-01 5.205330178136909325e+01
5.031999999999999806e-01 8.160755763891941683e+01
6.038999999999999924e-01 1.177460053725696554e+02
7.045000000000000151e-01 1.603952055864149031e+02
8.051000000000000378e-01 2.117295240305563766e+02
9.058000000000000496e-01 2.700599295511291871e+02
1.006399999999999961e+00 3.380215183373059631e+02
1.107099999999999973e+00 4.133819547977384445e+02
1.207699999999999996e+00 4.992654256697188657e+02
1.308400000000000007e+00 5.964496689631291702e+02
1.409000000000000030e+00 7.017031539334986974e+02
1.509600000000000053e+00 8.230746679281298839e+02
1.610300000000000065e+00 9.533516679386027590e+02
1.710900000000000087e+00 1.101410687485966946e+03
1.811600000000000099e+00 1.263828528783361207e+03
1.912199999999999900e+00 1.446084165761185659e+03
2.012900000000000134e+00 1.649463572341617009e+03
2.113500000000000156e+00 1.869374188469265391e+03
2.214199999999999946e+00 2.123728701798835573e+03
2.314799999999999969e+00 2.402555705361538458e+03
2.415399999999999991e+00 2.719319100299663660e+03
2.516099999999999781e+00 3.076035301387844356e+03
2.616699999999999804e+00 3.480973757262441268e+03
2.717400000000000038e+00 3.943378582630502478e+03
2.818000000000000060e+00 4.479520357505619359e+03
2.918699999999999850e+00 5.114650114962892076e+03
3.019299999999999873e+00 5.867146503568996195e+03
3.119899999999999896e+00 6.794638345180584110e+03
3.220600000000000129e+00 7.988678127574878999e+03
3.321200000000000152e+00 9.615146984856657582e+03
3.421899999999999942e+00 1.218578885967670794e+04
3.522499999999999964e+00 1.714087833901925842e+04
3.623200000000000198e+00 2.516262504781871758e+04
3.723800000000000221e+00 2.943594079481953304e+04
3.824399999999999800e+00 4.292889971015458286e+04
3.925100000000000033e+00 5.399023737970540969e+04
4.025699999999999612e+00 6.599515343428026245e+04
4.126400000000000290e+00 9.471571641734546574e+04
4.227000000000000313e+00 9.144817144208353420e+04
4.327700000000000102e+00 1.089312365346570441e+05
4.428300000000000125e+00 1.225522764041980408e+05
4.528900000000000148e+00 1.565898375351290451e+05
4.629599999999999937e+00 2.252610116176030715e+05
4.730199999999999960e+00 3.120724062066347105e+05
4.830899999999999750e+00 3.613372147188964300e+05
4.931499999999999773e+00 5.164145633962524007e+05
5.032199999999999562e+00 4.900980050603926065e+05
5.132799999999999585e+00 3.868513920229198411e+05
5.233399999999999608e+00 4.207605801743695047e+05
5.334100000000000286e+00 5.971299279641216854e+05
5.434700000000000308e+00 6.712339831988645019e+05
5.535400000000000098e+00 6.924665259256268619e+05
5.636000000000000121e+00 6.960465581222078763e+05
5.736699999999999910e+00 7.569304527438766090e+05
5.837299999999999933e+00 7.273295321382530965e+05
5.937899999999999956e+00 7.029526905093748355e+05
6.038599999999999746e+00 7.327768046427747468e+05
6.139199999999999768e+00 7.108316997720969375e+05
6.239899999999999558e+00 6.462852144770204322e+05
6.340499999999999581e+00 7.151359261320737423e+05
6.441200000000000259e+00 8.013421217745303875e+05
6.541800000000000281e+00 7.998753200288800290e+05
6.642500000000000071e+00 8.588466759070758708e+05
6.743100000000000094e+00 8.655727484618419548e+05
6.843700000000000117e+00 8.710833685236427700e+05
6.944399999999999906e+00 8.759056497123111039e+05
7.044999999999999929e+00 8.513349229567578295e+05
7.145699999999999719e+00 9.683595024659940973e+05
7.246299999999999741e+00 1.059288332620306406e+06
7.347000000000000419e+00 1.122452766719527543e+06
7.447600000000000442e+00 1.146024746225153329e+06
7.548199999999999577e+00 1.113834209164068336e+06
7.648900000000000254e+00 1.037378186168817803e+06
7.749500000000000277e+00 9.628590204424805706e+05
7.850200000000000067e+00 8.968010940975694684e+05
7.950800000000000090e+00 8.721049251750416588e+05
8.051500000000000767e+00 8.183696692644219147e+05
8.152100000000000790e+00 8.336314718502920587e+05
8.252700000000000813e+00 9.030080347439091420e+05
8.353400000000000603e+00 9.221756136593103874e+05
8.454000000000000625e+00 9.412335606038937112e+05
8.554700000000000415e+00 9.397513914616659749e+05
8.655300000000000438e+00 8.928926250938333105e+05
8.756000000000000227e+00 9.348019453555193031e+05
8.856600000000000250e+00 9.047463767795491731e+05
8.957200000000000273e+00 8.813222048784667859e+05
9.057900000000000063e+00 8.817578465682623209e+05
9.158500000000000085e+00 8.401829211269648513e+05
9.259199999999999875e+00 7.854746933558298042e+05
9.359799999999999898e+00 7.539680514265933307e+05
9.460499999999999687e+00 7.295975137586793862e+05
9.561099999999999710e+00 7.213177227165604709e+05
9.661699999999999733e+00 8.353067904551273677e+05
9.762399999999999523e+00 8.191590675604757853e+05
9.862999999999999545e+00 7.623656798889841884e+05
9.963699999999999335e+00 7.045574368643175112e+05
1.006429999999999936e+01 7.062793776823779335e+05
1.016499999999999915e+01 6.849530066667755600e+05
1.026559999999999917e+01 7.305209480605344288e+05
1.036619999999999919e+01 7.449550952780164080e+05
1.046690000000000076e+01 7.340543318663742393e+05
1.056750000000000078e+01 7.184344955947108101e+05
1.066820000000000057e+01 7.240162102193470346e+05
1.076880000000000059e+01 7.425993721475540660e+05
1.086950000000000038e+01 8.153765225709675578e+05
1.097010000000000041e+01 8.223208441806706833e+05
1.107080000000000020e+01 8.493889640790083213e+05
1.117140000000000022e+01 8.839792377909789793e+05
1.127200000000000024e+01 9.245892862004894996e+05
1.137270000000000003e+01 9.064224232146540890e+05
1.147330000000000005e+01 9.057888049152623862e+05
1.157399999999999984e+01 9.489759164366194746e+05
1.167459999999999987e+01 9.881922066599678947e+05
1.177529999999999966e+01 9.850154790232747328e+05
1.187589999999999968e+01 1.011120352939050179e+06
1.197649999999999970e+01 9.518503433921085671e+05
1.207719999999999949e+01 8.981116849875410553e+05
1.217779999999999951e+01 8.876326082663111156e+05
1.227849999999999930e+01 8.254076746157632442e+05
1.237909999999999933e+01 7.725103771492097294e+05
1.247979999999999912e+01 8.129187326438777382e+05
1.258039999999999914e+01 7.480273702140845126e+05
1.268099999999999916e+01 6.696212402376900427e+05
1.278170000000000073e+01 6.632488736665102188e+05
1.288230000000000075e+01 6.464019957041294547e+05
1.298300000000000054e+01 6.336293706797192572e+05
1.308360000000000056e+01 5.570436080847765552e+05
1.318430000000000035e+01 5.048410327363521792e+05
1.328490000000000038e+01 5.289750822732709348e+05
1.338550000000000040e+01 5.382655347477295436e+05
1.348620000000000019e+01 4.796612133358627907e+05
1.358680000000000021e+01 4.692419148055511178e+05
1.368750000000000000e+01 4.831751123609445058e+05
1.378810000000000002e+01 5.073744328792063752e+05
1.388879999999999981e+01 5.094645523545831675e+05
1.398939999999999984e+01 4.904812896836416912e+05
1.408999999999999986e+01 4.568192671872292412e+05
1.419069999999999965e+01 4.859625496098042931e+05
1.429129999999999967e+01 4.567881165656806552e+05
1.439199999999999946e+01 4.533225138518429012e+05
1.449259999999999948e+01 4.841493996387688094e+05
1.459329999999999927e+01 4.765276297453418956e+05
1.469389999999999930e+01 4.425967657792929676e+05
1.479449999999999932e+01 4.936942743268580525e+05
1.489520000000000088e+01 5.133520198234576383e+05
1.499579999999999913e+01 5.373419393561593024e+05
1.509650000000000070e+01 5.675170333327386761e+05
1.519710000000000072e+01 5.503497287354199216e+05
1.529780000000000051e+01 5.153932225328789209e+05
1.539840000000000053e+01 4.922686720652088989e+05
1.549910000000000032e+01 5.145334136534782010e+05
1.559970000000000034e+01 4.695319557136473013e+05
1.570030000000000037e+01 4.704120814077308169e+05
1.580100000000000016e+01 5.189784967668710742e+05
1.590160000000000018e+01 5.457987254727259278e+05
1.600230000000000175e+01 5.269790339975766838e+05
1.610290000000000177e+01 4.807121202948095161e+05
1.620360000000000156e+01 4.192926628383668140e+05
1.630420000000000158e+01 3.972986259780611144e+05
1.640480000000000160e+01 4.299238696956397616e+05
1.650550000000000139e+01 4.442313757077184273e+05
1.660610000000000142e+01 4.777322299541336251e+05
1.670680000000000121e+01 5.045331258326195530e+05
1.680740000000000123e+01 5.984196022218586877e+05
1.690810000000000102e+01 6.204359780057243770e+05
1.700870000000000104e+01 5.539119151861931896e+05
1.710930000000000106e+01 5.346799154306820128e+05
1.721000000000000085e+01 6.521294042681410210e+05
1.731060000000000088e+01 8.218298393153373618e+05
1.741130000000000067e+01 9.515407301351530477e+05
1.751190000000000069e+01 9.767202537570298882e+05
1.761260000000000048e+01 1.073967098836084595e+06
1.771320000000000050e+01 1.175419999223448802e+06
1.781380000000000052e+01 1.119261092958417023e+06
1.791450000000000031e+01 1.072560479620931204e+06
1.801510000000000034e+01 1.068910859193904558e+06
1.811580000000000013e+01 1.014140345998877543e+06
1.821640000000000015e+01 8.833918508536547888e+05
1.831709999999999994e+01 7.454674696043606382e+05
1.841769999999999996e+01 7.173885198460492538e+05
1.851829999999999998e+01 6.036042307316885563e+05
1.861899999999999977e+01 5.245427611247705063e+05
1.871959999999999980e+01 4.985589589957252028e+05
1.882029999999999959e+01 5.380599846980746370e+05
1.892089999999999961e+01 4.790459954829826602e+05
1.902159999999999940e+01 4.292948166451501893e+05
1.912219999999999942e+01 3.405372619553438853e+05
1.922279999999999944e+01 3.254230643261159421e+05
1.932349999999999923e+01 3.273166535376603715e+05
1.942409999999999926e+01 3.258856837666342035e+05
1.952479999999999905e+01 3.320526637216942036e+05
1.962539999999999907e+01 3.560820381975655328e+05
1.972609999999999886e+01 4.238042972689871094e+05
1.982669999999999888e+01 4.106568007083931589e+05
1.992739999999999867e+01 3.768126884249257273e+05
2.002799999999999869e+01 3.519284519132940914e+05
2.012859999999999872e+01 3.577466667536549503e+05
2.022929999999999851e+01 3.758891159107222338e+05
2.032989999999999853e+01 4.092169905836419784e+05
2.043059999999999832e+01 5.090914851680095308e+05
2.053119999999999834e+01 5.951464888522427063e+05
2.063190000000000168e+01 5.917614160310232546e+05
2.073250000000000171e+01 5.294998242586603155e+05
2.083310000000000173e+01 4.553261750823094044e+05
2.093380000000000152e+01 5.257231035491245566e+05
2.103440000000000154e+01 8.124484412198924692e+05
2.113510000000000133e+01 1.004406705966305570e+06
2.123570000000000135e+01 8.740191190715138800e+05
2.133640000000000114e+01 9.661199930861230241e+05
2.143700000000000117e+01 1.267839923823257210e+06
2.153760000000000119e+01 1.253468846521123778e+06
2.163830000000000098e+01 1.211552433710807702e+06
2.173890000000000100e+01 1.279422635974213481e+06
2.183960000000000079e+01 1.196407686612773687e+06
2.194020000000000081e+01 1.198954997165906243e+06
2.204090000000000060e+01 1.379798565605757060e+06
2.214150000000000063e+01 1.453661088353888597e+06
2.224210000000000065e+01 1.345456445879873354e+06
2.234280000000000044e+01 1.171850760141765000e+06
2.244340000000000046e+01 1.000312237624836853e+06
2.254410000000000025e+01 8.574554331342017977e+05
2.264470000000000027e+01 6.915938619943349622e+05
2.274540000000000006e+01 5.912342000604583882e+05
2.284600000000000009e+01 6.374089818150526844e+05
2.294660000000000011e+01 7.569823610583859263e+05
2.304729999999999990e+01 7.819886471676173387e+05
2.314789999999999992e+01 7.202161847826058511e+05
2.324859999999999971e+01 8.166266621011929819e+05
2.334919999999999973e+01 7.995937611340270378e+05
2.344989999999999952e+01 5.989479972872423241e+05
2.355049999999999955e+01 4.886190218021211913e+05
2.365109999999999957e+01 4.536811363861241844e+05
2.375179999999999936e+01 4.106679815820205258e+05
2.385239999999999938e+01 3.724483823175796424e+05
2.395309999999999917e+01 3.390305470004302915e+05
2.405369999999999919e+01 2.997819004796585068e+05
2.415439999999999898e+01 2.534668818452264823e+05
2.425499999999999901e+01 2.381045953692256880e+05
2.435569999999999879e+01 2.544642188462160702e+05
2.445629999999999882e+01 3.018915468369948212e+05
2.455689999999999884e+01 2.897165047572016483e+05
2.465759999999999863e+01 3.346743301327340305e+05
2.475819999999999865e+01 3.727910404397367965e+05
2.485889999999999844e+01 3.599690367452516221e+05
2.495949999999999847e+01 3.460225156515966519e+05
2.506019999999999825e+01 3.999391012947584386e+05
2.516079999999999828e+01 5.390788010995897930e+05
2.526139999999999830e+01 5.737787588331203442e+05
2.536210000000000164e+01 5.048225707650707336e+05
2.546270000000000167e+01 4.071454530818294734e+05
2.556340000000000146e+01 3.689589812039081007e+05
2.566400000000000148e+01 3.578478761766981333e+05
2.576470000000000127e+01 3.362752495953725884e+05
2.586530000000000129e+01 3.380620088500660495e+05
2.596590000000000131e+01 3.359806335094172391e+05
2.606660000000000110e+01 2.840359812358519994e+05
2.616720000000000113e+01 2.763145498491417966e+05
2.626790000000000092e+01 2.192898643319966213e+05
2.636850000000000094e+01 2.267126011942330806e+05
2.646920000000000073e+01 2.910615210058164084e+05
2.656980000000000075e+01 3.375733102789872210e+05
2.667040000000000077e+01 3.024064351061946363e+05
2.677110000000000056e+01 2.637161617112306412e+05
2.687170000000000059e+01 2.413239639801835292e+05
2.697240000000000038e+01 2.363433700980252470e+05
2.707300000000000040e+01 2.506915483173248067e+05
2.717370000000000019e+01 2.612121225989497325e+05
2.727430000000000021e+01 2.935646263123148819e+05
2.737490000000000023e+01 2.667971363372745109e+05
2.747560000000000002e+01 2.398415585293736367e+05
2.757620000000000005e+01 2.249651622474936885e+05
2.767689999999999984e+01 2.087776305543358903e+05
2.777749999999999986e+01 2.012356230787002132e+05
2.787819999999999965e+01 1.607121693843329267e+05
2.797879999999999967e+01 1.395937765764344367e+05
2.807939999999999969e+01 1.417055370323405659e+05
2.818009999999999948e+01 1.429717585601391329e+05
2.828069999999999951e+01 1.329968977291593037e+05
2.838139999999999930e+01 1.408293437086440390e+05
2.848199999999999932e+01 1.600933276349316875e+05
2.858269999999999911e+01 1.727164334405977861e+05
2.868329999999999913e+01 1.617081636955822760e+05
2.878399999999999892e+01 1.488690069342978823e+05
2.888459999999999894e+01 1.558325389282148681e+05
2.898519999999999897e+01 1.457497669305750460e+05
2.908589999999999876e+01 1.330238215773101838e+05
2.918649999999999878e+01 1.346485668088542589e+05
2.928719999999999857e+01 1.215720569649579411e+05
2.938779999999999859e+01 1.149422517454318586e+05
2.948849999999999838e+01 1.131674911137564486e+05
2.958909999999999840e+01 1.046952880208664283e+05
2.968969999999999843e+01 1.061588018312898930e+05
2.979040000000000177e+01 1.092522687831138610e+05
2.989099999999999824e+01 9.645447254660542239e+04
2.999170000000000158e+01 8.756282998194289394e+04
3.009230000000000160e+01 8.938657203514393768e+04
3.019300000000000139e+01 9.116721345877225394e+04
3.029360000000000142e+01 9.543777387158779311e+04
3.039420000000000144e+01 9.610738614045367285e+04
3.049490000000000123e+01 9.847068646955664735e+04
3.059550000000000125e+01 9.585880528752043028e+04
3.069620000000000104e+01 9.766813915426404856e+04
3.079680000000000106e+01 1.054098055895863363e+05
3.089750000000000085e+01 9.557343010311840044e+04
3.099810000000000088e+01 1.089520024576037540e+05
3.109870000000000090e+01 1.103898203334928112e+05
3.119940000000000069e+01 9.319228302637272282e+04
3.130000000000000071e+01 8.815241565794088820e+04
3.140070000000000050e+01 7.991575502006642637e+04
3.150130000000000052e+01 8.227002095227592508e+04
3.160200000000000031e+01 8.475274883086317277e+04
3.170260000000000034e+01 7.699703435117981280e+04
3.180320000000000036e+01 7.723477863750782853e+04
3.190390000000000015e+01 7.091543338283347839e+04
3.200450000000000017e+01 6.814945583716680994e+04
3.210520000000000351e+01 7.735538457766381907e+04
3.220580000000000354e+01 9.722694805186991289e+04
3.230649999999999977e+01 9.420680842779071827e+04
3.240709999999999980e+01 8.269444544465902436e+04
3.250769999999999982e+01 7.842178958052123198e+04
3.260840000000000316e+01 7.139079839084892592e+04
3.270900000000000318e+01 7.463289091363608895e+04
3.280969999999999942e+01 7.432922421372054669e+04
3.291029999999999944e+01 8.021440973583483719e+04
3.301100000000000279e+01 7.602690219121304108e+04
3.311160000000000281e+01 7.572113191643862228e+04
3.321229999999999905e+01 7.559184078920476895e+04
3.331289999999999907e+01 8.124991756029422686e+04
3.341349999999999909e+01 8.554341770530068607e+04
3.351420000000000243e+01 8.633024273303442169e+04
3.361480000000000246e+01 9.352013779397403414e+04
3.371549999999999869e+01 8.346262983982873266e+04
3.381609999999999872e+01 7.612593440566952631e+04
3.391680000000000206e+01 7.543321465534268646e+04
3.401740000000000208e+01 7.341689493141944695e+04
3.411800000000000210e+01 7.268059331556604593e+04
3.421869999999999834e+01 7.956610094907732855e+04
3.431929999999999836e+01 7.439137814715341665e+04
3.442000000000000171e+01 6.674087256304098992e+04
3.452060000000000173e+01 7.137877976902539376e+04
3.462129999999999797e+01 6.838955089731297630e+04
3.472189999999999799e+01 7.017345069530066394e+04
3.482249999999999801e+01 6.199498078087998874e+04
3.492320000000000135e+01 5.883432690645614639e+04
3.502380000000000138e+01 5.915120940530821827e+04
3.512449999999999761e+01 5.302649545890268200e+04
3.522509999999999764e+01 5.302784777801651944e+04
3.532580000000000098e+01 5.545812495533964102e+04
3.542640000000000100e+01 6.159116379673594201e+04
3.552700000000000102e+01 6.194398876398304856e+04
3.562769999999999726e+01 6.575257193316571647e+04
3.572829999999999728e+01 6.291721017802655115e+04
3.582900000000000063e+01 6.308273429417673469e+04
3.592960000000000065e+01 5.817997868218398071e+04
3.603029999999999688e+01 5.296463654170049267e+04
3.613089999999999691e+01 5.155477501729592041e+04
3.623149999999999693e+01 5.656961911346193665e+04
3.633220000000000027e+01 5.118941127891053475e+04
3.643280000000000030e+01 4.918419231403825688e+04
3.653349999999999653e+01 4.959683002628572285e+04
3.663409999999999656e+01 5.935324817467031244e+04
3.673479999999999990e+01 5.853358181476889149e+04
3.683539999999999992e+01 5.864359915000718320e+04
3.693599999999999994e+01 6.319685883892446145e+04
3.703670000000000329e+01 5.765238397584153427e+04
3.713730000000000331e+01 4.669875466500772745e+04
3.723799999999999955e+01 4.417931337066167907e+04
3.733859999999999957e+01 4.861777885575336404e+04
3.743930000000000291e+01 4.830704915367763169e+04
3.753990000000000293e+01 4.862877686502526922e+04
3.764059999999999917e+01 4.408281887976628786e+04
3.774119999999999919e+01 4.683442047397406714e+04
3.784179999999999922e+01 5.222263227871999698e+04
3.794250000000000256e+01 5.004261184587534080e+04
3.804310000000000258e+01 5.056815253374447639e+04
3.814379999999999882e+01 4.899635261564921529e+04
3.824439999999999884e+01 4.630571208954295435e+04
3.834510000000000218e+01 4.870267140157824906e+04
3.844570000000000221e+01 5.136412757810329640e+04
3.854630000000000223e+01 5.429532510007486417e+04
3.864699999999999847e+01 5.234145956376150571e+04
3.874759999999999849e+01 4.599908742299178994e+04
3.884830000000000183e+01 4.476415698900087591e+04
3.894890000000000185e+01 4.397249196989380289e+04
3.904959999999999809e+01 4.488897202755127364e+04
3.915019999999999811e+01 4.910905745924505027e+04
3.925079999999999814e+01 4.730883911666139466e+04
3.935150000000000148e+01 4.325839848631960194e+04
3.945210000000000150e+01 4.442157541398771718e+04
3.955279999999999774e+01 4.253515109792560543e+04
3.965339999999999776e+01 4.568282509903219761e+04
3.975410000000000110e+01 4.294288161779689108e+04
3.985470000000000113e+01 4.279146594545633707e+04
3.995530000000000115e+01 4.329344865695173212e+04
4.005599999999999739e+01 4.825730861221333907e+04
