# energy(eV) alpha
0.000000000000000000e+00 0.000000000000000000e+00
1.103999999999999981e-01 4.374894648214448623e+00
2.207999999999999963e-01 1.749363589715916234e+01
3.311999999999999944e-01 3.933824805231346033e+01
4.415999999999999925e-01 7.104340095946905365e+01
5.520000000000000462e-01 1.119819580084140256e+02
6.624999999999999778e-01 1.621219603627428114e+02
7.729000000000000314e-01 2.233748028705536797e+02
8.832999999999999741e-01 2.942202389409339958e+02
9.937000000000000277e-01 3.771490319505005573e+02
1.104100000000000081e+00 4.728826546960396513e+02
1.214499999999999913e+00 5.821267394680536427e+02
1.324899999999999967e+00 7.055283612340176660e+02
1.435300000000000020e+00 8.437078107762306445e+02
1.545700000000000074e+00 1.001234870546358025e+03
1.656099999999999905e+00 1.175167282482035944e+03
1.766499999999999959e+00 1.375039292403947002e+03
1.876900000000000013e+00 1.598003585436683124e+03
1.987400000000000055e+00 1.850249345804460063e+03
2.097799999999999887e+00 2.133328297513787675e+03
2.208200000000000163e+00 2.454372190196202610e+03
2.318599999999999994e+00 2.815422945403104677e+03
2.428999999999999826e+00 3.230350802030017803e+03
2.539400000000000102e+00 3.708187952505660633e+03
2.649799999999999933e+00 4.264876468465925427e+03
2.760200000000000209e+00 4.910797280064825827e+03
2.870600000000000041e+00 5.669805472592028309e+03
2.980999999999999872e+00 6.574166321518069708e+03
3.091400000000000148e+00 7.678697044498944706e+03
3.201900000000000190e+00 9.055230176954488343e+03
3.312300000000000022e+00 1.082820481090624708e+04
3.422699999999999854e+00 1.323057765477149769e+04
3.533100000000000129e+00 1.681741468824826734e+04
3.643499999999999961e+00 2.340026564267390131e+04
3.753899999999999793e+00 3.491215534897940233e+04
3.864300000000000068e+00 4.112120483532921207e+04
3.974699999999999900e+00 6.460742339410563000e+04
4.085099999999999731e+00 1.197550331235917256e+05
4.195500000000000007e+00 1.575946221867318382e+05
4.305900000000000283e+00 2.433231287376135297e+05
4.416299999999999670e+00 2.531069666880550212e+05
4.526799999999999713e+00 3.606589814305308973e+05
4.637199999999999989e+00 4.668755366077436483e+05
4.747600000000000264e+00 4.378030535934980144e+05
4.857999999999999652e+00 5.241578237390233553e+05
4.968399999999999928e+00 6.405281234342578100e+05
5.078800000000000203e+00 6.325243196479490725e+05
5.189199999999999591e+00 5.920974799487144919e+05
5.299599999999999866e+00 6.004057890866822563e+05
5.410000000000000142e+00 5.119662293764898204e+05
5.520400000000000418e+00 4.829512106988687301e+05
5.630799999999999805e+00 4.404781369128678925e+05
5.741299999999999848e+00 4.395650313391055097e+05
5.851700000000000124e+00 4.483710436404880020e+05
5.962100000000000399e+00 5.291184655029840069e+05
6.072499999999999787e+00 6.675114542059223168e+05
6.182900000000000063e+00 7.573548231043259148e+05
6.293300000000000338e+00 8.458985403444371186e+05
6.403699999999999726e+00 8.584650742653175257e+05
6.514100000000000001e+00 1.027451908466679975e+06
6.624500000000000277e+00 1.097733915688348236e+06
6.734899999999999665e+00 1.135794028214867692e+06
6.845299999999999940e+00 1.091238359466080554e+06
6.955700000000000216e+00 1.002156657234884333e+06
7.066200000000000259e+00 9.471755113680517534e+05
7.176599999999999646e+00 8.487048215665622847e+05
7.286999999999999922e+00 9.923244694883372867e+05
7.397400000000000198e+00 1.110121388453998137e+06
7.507799999999999585e+00 1.161294678056284087e+06
7.618199999999999861e+00 1.070083474254258908e+06
7.728600000000000136e+00 9.547007412242974387e+05
7.839000000000000412e+00 9.505704709839316783e+05
7.949399999999999800e+00 9.668735980169719551e+05
8.059799999999999187e+00 9.171602375292582437e+05
8.170199999999999463e+00 8.394573302552957321e+05
8.280699999999999505e+00 8.201457227430443745e+05
8.391099999999999781e+00 7.787485487462796737e+05
8.501500000000000057e+00 7.680163580444271211e+05
8.611900000000000333e+00 8.789856930093576666e+05
8.722300000000000608e+00 1.003028959393472644e+06
8.832700000000000884e+00 1.021487100070163375e+06
8.943099999999999383e+00 9.735254344475044636e+05
9.053499999999999659e+00 1.017130372692228644e+06
9.163899999999999935e+00 1.004100394041881198e+06
9.274300000000000210e+00 9.751059843717467738e+05
9.384700000000000486e+00 9.537496357901317533e+05
9.495100000000000762e+00 1.041900540814195876e+06
9.605600000000000804e+00 1.053066698597215815e+06
9.715999999999999304e+00 9.829090548718586797e+05
9.826399999999999579e+00 1.019945263310606941e+06
9.936799999999999855e+00 1.018126488908141386e+06
1.004720000000000013e+01 9.966891313595237443e+05
1.015760000000000041e+01 1.062958292749438668e+06
1.026800000000000068e+01 1.046440017801247304e+06
1.037839999999999918e+01 9.496596660991178360e+05
1.048879999999999946e+01 9.088397980051027844e+05
1.059919999999999973e+01 9.370030061561003095e+05
1.070960000000000001e+01 8.917520482838631142e+05
1.082010000000000005e+01 8.601723643718964886e+05
1.093050000000000033e+01 8.907398831473157043e+05
1.104090000000000060e+01 8.772250763412598753e+05
1.115130000000000088e+01 8.636799536872582976e+05
1.126169999999999938e+01 9.198057955088695744e+05
1.137209999999999965e+01 9.734242695133200614e+05
1.148249999999999993e+01 9.273630903195880819e+05
1.159290000000000020e+01 9.168965278518658597e+05
1.170330000000000048e+01 9.426942474136921810e+05
1.181370000000000076e+01 1.017487753642573953e+06
1.192409999999999926e+01 1.050653802008128027e+06
1.203449999999999953e+01 9.335738350385713857e+05
1.214499999999999957e+01 8.914292682877754560e+05
1.225539999999999985e+01 8.782107145303299185e+05
1.236580000000000013e+01 8.284252956661136122e+05
1.247620000000000040e+01 8.115397523473640904e+05
1.258660000000000068e+01 8.390070457144425018e+05
1.269699999999999918e+01 8.186463962645436404e+05
1.280739999999999945e+01 8.316327709226261359e+05
1.291779999999999973e+01 8.596366494676389266e+05
1.302820000000000000e+01 7.850904112427207874e+05
1.313860000000000028e+01 7.178370109201647574e+05
1.324900000000000055e+01 6.574507739063552581e+05
1.335950000000000060e+01 6.386730037548800465e+05
1.346990000000000087e+01 5.668319294989083428e+05
1.358029999999999937e+01 5.588092111468949588e+05
1.369069999999999965e+01 5.869438712267122464e+05
1.380109999999999992e+01 5.669479677415812621e+05
1.391150000000000020e+01 5.126318754315756960e+05
1.402190000000000047e+01 4.996691561268754886e+05
1.413230000000000075e+01 4.674116885443756473e+05
1.424269999999999925e+01 5.021002870238401811e+05
1.435309999999999953e+01 4.626349153788224794e+05
1.446349999999999980e+01 4.446282053493637359e+05
1.457390000000000008e+01 5.027411641630983213e+05
1.468440000000000012e+01 5.721976177102579968e+05
1.479480000000000040e+01 5.665419668826602865e+05
1.490520000000000067e+01 5.287690717787328176e+05
1.501559999999999917e+01 5.560103391883472214e+05
1.512599999999999945e+01 5.559645432469161460e+05
1.523639999999999972e+01 5.757758265093630180e+05
1.534680000000000000e+01 5.698827674305330729e+05
1.545720000000000027e+01 5.428491346472568111e+05
1.556760000000000055e+01 5.218887617895812145e+05
1.567800000000000082e+01 5.304833855675687082e+05
1.578839999999999932e+01 5.133612886608845438e+05
1.589889999999999937e+01 5.521191550157433376e+05
1.600929999999999964e+01 5.621035013989178697e+05
1.611970000000000169e+01 5.035261745537669049e+05
1.623010000000000019e+01 4.605052796789567219e+05
1.634049999999999869e+01 4.907543228743066429e+05
1.645090000000000074e+01 5.520844130802983418e+05
1.656129999999999924e+01 6.468925595036235172e+05
1.667170000000000130e+01 7.785695161816601176e+05
1.678209999999999980e+01 8.044895814760085195e+05
1.689249999999999829e+01 7.964799447969951434e+05
1.700290000000000035e+01 6.915601901204439346e+05
1.711329999999999885e+01 8.039723627282548696e+05
1.722380000000000067e+01 8.959632814049348235e+05
1.733419999999999916e+01 1.038710942094559083e+06
1.744460000000000122e+01 1.061808490498195868e+06
1.755499999999999972e+01 1.053540784723889781e+06
1.766540000000000177e+01 1.098657995619731490e+06
1.777580000000000027e+01 1.000073008150619105e+06
1.788619999999999877e+01 9.758446428967803949e+05
1.799660000000000082e+01 9.550612193622470368e+05
1.810699999999999932e+01 1.086566207109056879e+06
1.821740000000000137e+01 9.905913504100673599e+05
1.832779999999999987e+01 9.889580141377788968e+05
1.843830000000000169e+01 9.679936150221819989e+05
1.854870000000000019e+01 8.408734917082362808e+05
1.865909999999999869e+01 8.958920984663031995e+05
1.876950000000000074e+01 8.386019212177217705e+05
1.887989999999999924e+01 7.462950058027997147e+05
1.899030000000000129e+01 6.207658897525749635e+05
1.910069999999999979e+01 5.146603834493092727e+05
1.921109999999999829e+01 4.990931810641373158e+05
1.932150000000000034e+01 5.164499759805573267e+05
1.943189999999999884e+01 4.551673722298021312e+05
1.954230000000000089e+01 4.531954199026534334e+05
1.965269999999999939e+01 4.751762598960743635e+05
1.976320000000000121e+01 4.787932688825434307e+05
1.987359999999999971e+01 4.809873709737629397e+05
1.998400000000000176e+01 4.287454257670881925e+05
2.009440000000000026e+01 3.664795940870746854e+05
2.020479999999999876e+01 3.392621915207088459e+05
2.031520000000000081e+01 3.551661570989645552e+05
2.042559999999999931e+01 3.633750474867171142e+05
2.053600000000000136e+01 3.004785422159751179e+05
2.064639999999999986e+01 2.512842404261422635e+05
2.075679999999999836e+01 2.469683114220283751e+05
2.086720000000000041e+01 2.365860667102107836e+05
2.097769999999999868e+01 2.506609201005994400e+05
2.108810000000000073e+01 2.602637269914571370e+05
2.119849999999999923e+01 2.636877386994985281e+05
2.130890000000000128e+01 3.311337220392205636e+05
2.141929999999999978e+01 4.072575553102553822e+05
2.152969999999999828e+01 4.768759842097206856e+05
2.164010000000000034e+01 5.075845579780617845e+05
2.175049999999999883e+01 5.022125138718649978e+05
2.186090000000000089e+01 5.472707221099964809e+05
2.197129999999999939e+01 6.882748576713327784e+05
2.208170000000000144e+01 6.542759949512934545e+05
2.219209999999999994e+01 5.147734962486138102e+05
2.230260000000000176e+01 4.672631747523569502e+05
2.241300000000000026e+01 4.508485282331250492e+05
2.252339999999999876e+01 4.620975440051869373e+05
2.263380000000000081e+01 4.541589932047546026e+05
2.274419999999999931e+01 3.567015369169906480e+05
2.285460000000000136e+01 2.673965765976362745e+05
2.296499999999999986e+01 2.427127475466129254e+05
2.307539999999999836e+01 2.786111868049710174e+05
2.318580000000000041e+01 2.628385497947958065e+05
2.329619999999999891e+01 2.415757984768990136e+05
2.340660000000000096e+01 2.165338751950782316e+05
2.351709999999999923e+01 1.881403607209503825e+05
2.362750000000000128e+01 1.790041417976096564e+05
2.373789999999999978e+01 1.808431632526747417e+05
2.384829999999999828e+01 1.696470049240569642e+05
2.395870000000000033e+01 1.568880342150387005e+05
2.406909999999999883e+01 1.762577732553692476e+05
2.417950000000000088e+01 1.634175764327740471e+05
2.428989999999999938e+01 1.577658133696975710e+05
2.440030000000000143e+01 1.616323244503865717e+05
2.451069999999999993e+01 1.806010759997243294e+05
2.462109999999999843e+01 2.096459810578839970e+05
2.473150000000000048e+01 2.507703348529433715e+05
2.484199999999999875e+01 3.085684581631687470e+05
2.495240000000000080e+01 4.293354822528792429e+05
2.506279999999999930e+01 5.399479738535179058e+05
2.517320000000000135e+01 5.850983490348816849e+05
2.528359999999999985e+01 5.175772969382554875e+05
2.539399999999999835e+01 6.844877666133884341e+05
2.550440000000000040e+01 9.525638904163433472e+05
2.561479999999999890e+01 1.049885212679192889e+06
2.572520000000000095e+01 1.303682791390129598e+06
2.583559999999999945e+01 1.453872634057418443e+06
2.594600000000000151e+01 1.281170255791067379e+06
2.605649999999999977e+01 1.290487755567682674e+06
2.616689999999999827e+01 1.647066809794194764e+06
2.627730000000000032e+01 1.411189941277564969e+06
2.638769999999999882e+01 8.382268401041236939e+05
2.649810000000000088e+01 5.596258058426892385e+05
2.660849999999999937e+01 5.007943788381929044e+05
2.671890000000000143e+01 5.521258178932527080e+05
2.682929999999999993e+01 5.268154800783746177e+05
2.693969999999999843e+01 5.841309553163774544e+05
2.705010000000000048e+01 4.965872690996392630e+05
2.716049999999999898e+01 4.425297075376464636e+05
2.727090000000000103e+01 4.963675819845303195e+05
2.738139999999999930e+01 6.615885286399148172e+05
2.749180000000000135e+01 4.718966491356894257e+05
2.760219999999999985e+01 3.737956300043254741e+05
2.771259999999999835e+01 3.033180354876823840e+05
2.782300000000000040e+01 3.251157469431226491e+05
2.793339999999999890e+01 4.185977024346833350e+05
2.804380000000000095e+01 3.486156703025444876e+05
2.815419999999999945e+01 2.772805678635966033e+05
2.826460000000000150e+01 2.660278378748419927e+05
2.837500000000000000e+01 2.654637178593107965e+05
2.848539999999999850e+01 2.272894482017871924e+05
2.859590000000000032e+01 2.116255191606871958e+05
2.870629999999999882e+01 2.161418039428207267e+05
2.881670000000000087e+01 2.314750776990262384e+05
2.892709999999999937e+01 1.971329208805407688e+05
2.903750000000000142e+01 1.786553591163202655e+05
2.914789999999999992e+01 2.026926483966571977e+05
2.925829999999999842e+01 2.161274785938096466e+05
2.936870000000000047e+01 2.350175475680797535e+05
2.947909999999999897e+01 2.232319246861472493e+05
2.958950000000000102e+01 1.868628646251122991e+05
2.969989999999999952e+01 2.075090178528330289e+05
2.981030000000000157e+01 1.955819269907692214e+05
2.992079999999999984e+01 2.100072728563061100e+05
3.003119999999999834e+01 2.426932234530462883e+05
3.014160000000000039e+01 2.296062924445252283e+05
3.025199999999999889e+01 1.717639644238757319e+05
3.036240000000000094e+01 1.772531605858311523e+05
3.047279999999999944e+01 1.829034750536967767e+05
3.058320000000000149e+01 1.796489348042373895e+05
3.069359999999999999e+01 1.784505323482083622e+05
3.080399999999999849e+01 1.390950061900579894e+05
3.091440000000000055e+01 1.046815201063969143e+05
3.102479999999999905e+01 9.181258209347326192e+04
3.113530000000000086e+01 9.652914813376576058e+04
3.124569999999999936e+01 9.922508798581529118e+04
3.135610000000000142e+01 9.052280945279137813e+04
3.146649999999999991e+01 9.577547948631148029e+04
3.157689999999999841e+01 1.183556313369958953e+05
3.168730000000000047e+01 1.140582597631952376e+05
3.179769999999999897e+01 1.234781677137205115e+05
3.190810000000000102e+01 9.949437838221943821e+04
3.201850000000000307e+01 8.909068542311148485e+04
3.212890000000000157e+01 8.639636300597929221e+04
3.223930000000000007e+01 9.098747014377677988e+04
3.234969999999999857e+01 8.311997652686564834e+04
3.246020000000000039e+01 8.168944903351807443e+04
3.257059999999999889e+01 8.351297228476061719e+04
3.268099999999999739e+01 8.388627366296356195e+04
3.279140000000000299e+01 7.969633433958285605e+04
3.290180000000000149e+01 7.899043862335188896e+04
3.301219999999999999e+01 7.762560951725913037e+04
3.312259999999999849e+01 6.641735863064837758e+04
3.323299999999999699e+01 6.881556285076867789e+04
3.334340000000000259e+01 7.939483011612640985e+04
3.345380000000000109e+01 7.648695953283971176e+04
3.356419999999999959e+01 7.690098244645079831e+04
3.367470000000000141e+01 6.679671331423951779e+04
3.378509999999999991e+01 7.946153713481080194e+04
3.389549999999999841e+01 8.574051212056173244e+04
3.400589999999999691e+01 7.311403465888492065e+04
3.411630000000000251e+01 6.596478463248518528e+04
3.422670000000000101e+01 6.143008006554808526e+04
3.433709999999999951e+01 5.682680176084771665e+04
3.444749999999999801e+01 5.972147395074562519e+04
3.455789999999999651e+01 5.420891927665742696e+04
3.466830000000000211e+01 5.122185245447009947e+04
3.477870000000000061e+01 4.842921853732671298e+04
3.488909999999999911e+01 4.763628623431066808e+04
3.499960000000000093e+01 4.905107569842125667e+04
3.510999999999999943e+01 5.474298270421989582e+04
3.522039999999999793e+01 6.169907466783201380e+04
3.533080000000000354e+01 7.320783189424547891e+04
3.544120000000000203e+01 6.174557921762545448e+04
3.555160000000000053e+01 5.547084465242994338e+04
3.566199999999999903e+01 5.328556319241674646e+04
3.577239999999999753e+01 5.297481537220809696e+04
3.588280000000000314e+01 5.041300187459968583e+04
3.599320000000000164e+01 4.695200525010516867e+04
3.610360000000000014e+01 5.115785806087795936e+04
3.621410000000000196e+01 4.818389179766440793e+04
3.632450000000000045e+01 4.825121961376461695e+04
3.643489999999999895e+01 5.004971979179462505e+04
3.654529999999999745e+01 4.456697566531811026e+04
3.665570000000000306e+01 4.004107315249058593e+04
3.676610000000000156e+01 3.610375846364732570e+04
3.687650000000000006e+01 3.590168769299164705e+04
3.698689999999999856e+01 3.948901293428902864e+04
3.709729999999999706e+01 4.184935598631574976e+04
3.720770000000000266e+01 4.674216703920177679e+04
3.731810000000000116e+01 5.109713612575468142e+04
3.742849999999999966e+01 4.892285908596797526e+04
3.753900000000000148e+01 5.075890356008746312e+04
3.764939999999999998e+01 4.388243655359952390e+04
3.775979999999999848e+01 4.477584527919578977e+04
3.787019999999999698e+01 4.616647726234771108e+04
3.798060000000000258e+01 4.198793301438364870e+04
3.809100000000000108e+01 4.458999398731051042e+04
3.820139999999999958e+01 4.813621003440194909e+04
3.831179999999999808e+01 4.546990886442428018e+04
3.842219999999999658e+01 4.576298353853161098e+04
3.853260000000000218e+01 4.715835749953156483e+04
3.864300000000000068e+01 4.771949601159683516e+04
3.875350000000000250e+01 4.481395425529983186e+04
3.886390000000000100e+01 4.184663039277427742e+04
3.897429999999999950e+01 4.322283079636937327e+04
3.908469999999999800e+01 4.176273469638059760e+04
3.919509999999999650e+01 4.791801512597474357e+04
3.930550000000000210e+01 5.422623576271150523e+04
3.941590000000000060e+01 5.029818256999169535e+04
3.952629999999999910e+01 4.228050127808229445e+04
3.963669999999999760e+01 3.681631079384814075e+04
3.974710000000000321e+01 3.640666535188677517e+04
3.985750000000000171e+01 3.868303211866885249e+04
3.996790000000000020e+01 3.765495931587562518e+04
4.007840000000000202e+01 3.905658132741340523e+04
4.018880000000000052e+01 4.027906088773719239e+04
4.029919999999999902e+01 3.591005157958040945e+04
4.040959999999999752e+01 3.529755204220656015e+04
4.052000000000000313e+01 3.424753717259489349e+04
4.063040000000000163e+01 3.272901174559307037e+04
4.074080000000000013e+01 3.434449979795235413e+04
4.085119999999999862e+01 3.712514348837846774e+04
4.096159999999999712e+01 3.472143956117600464e+04
4.107200000000000273e+01 3.679526830106757552e+04
4.118240000000000123e+01 4.095349041950400715e+04
4.129290000000000305e+01 4.173654888929091976e+04
4.140330000000000155e+01 4.505034386223266483e+04
4.151370000000000005e+01 4.015445930795792083e+04
4.162409999999999854e+01 4.090897351993670600e+04
4.173449999999999704e+01 4.193150316256573569e+04
4.184490000000000265e+01 4.112839378904431214e+04
4.195530000000000115e+01 3.893339919922835543e+04
4.206569999999999965e+01 3.533216503997289692e+04
4.217609999999999815e+01 3.145401628479512510e+04
4.228649999999999665e+01 3.196268972912846948e+04
4.239690000000000225e+01 3.226138669416983612e+04
4.250730000000000075e+01 3.093484084118045939e+04
4.261780000000000257e+01 2.982500802589587693e+04
4.272820000000000107e+01 2.964797324135657982e+04
4.283859999999999957e+01 2.830060843904952344e+04
4.294899999999999807e+01 2.787547749564879268e+04
4.305939999999999657e+01 2.933408238720685404e+04
4.316980000000000217e+01 2.962058467721775378e+04
4.328020000000000067e+01 3.204379864671170799e+04
4.339059999999999917e+01 2.927419694864207486e+04
4.350099999999999767e+01 3.189877401702522911e+04
4.361140000000000327e+01 4.124830695691057917e+04
4.372180000000000177e+01 3.545456844078935683e+04
4.383229999999999649e+01 3.194955080064291178e+04
4.394270000000000209e+01 2.794096878238698991e+04
