# energy(eV) alpha
0.000000000000000000e+00 0.000000000000000000e+00
9.139999999999999514e-02 2.849759493509636865e+00
1.827999999999999903e-01 1.087834743374417279e+01
2.741000000000000103e-01 2.484640305640392910e+01
3.654999999999999916e-01 4.449689891121234098e+01
4.568999999999999728e-01 6.980567977501227972e+01
5.483000000000000096e-01 1.007477694032332209e+02
6.395999999999999464e-01 1.372757434292329037e+02
7.309999999999999831e-01 1.814540001581238187e+02
8.224000000000000199e-01 2.316710030088393921e+02
9.137999999999999456e-01 2.904478485024810652e+02
1.005100000000000104e+00 3.556233557304211104e+02
1.096500000000000030e+00 4.271972778804956761e+02
1.187899999999999956e+00 5.083870500814060165e+02
1.279300000000000104e+00 5.998384222158069861e+02
1.370600000000000041e+00 7.021495797867559077e+02
1.461999999999999966e+00 8.160066466875912283e+02
1.553399999999999892e+00 9.376796769049535669e+02
1.644800000000000040e+00 1.076047686855746178e+03
1.736099999999999977e+00 1.227531648752057436e+03
1.827499999999999902e+00 1.397751282284557192e+03
1.918900000000000050e+00 1.582521549227334845e+03
2.010299999999999976e+00 1.793173152899225670e+03
2.101700000000000124e+00 2.025653428945584210e+03
2.193000000000000060e+00 2.292604205504472702e+03
2.284400000000000208e+00 2.584014921972410320e+03
2.375799999999999912e+00 2.919384788538002795e+03
2.467200000000000060e+00 3.307595381392938634e+03
2.558499999999999996e+00 3.751059733319205861e+03
2.649900000000000144e+00 4.272982769076909790e+03
2.741299999999999848e+00 4.897880035557248448e+03
2.832699999999999996e+00 5.658788325261429236e+03
2.923999999999999932e+00 6.641971683099752227e+03
3.015400000000000080e+00 7.991726597787475839e+03
3.106799999999999784e+00 1.006592968096079858e+04
3.198199999999999932e+00 1.393929388102582743e+04
3.289499999999999869e+00 2.031725978975776525e+04
3.380900000000000016e+00 2.656052566691503307e+04
3.472300000000000164e+00 3.871059215025037702e+04
3.563699999999999868e+00 4.169931667646078131e+04
3.654999999999999805e+00 5.571905608134700014e+04
3.746399999999999952e+00 6.308570880369695806e+04
3.837800000000000100e+00 7.084435739485196245e+04
3.929199999999999804e+00 6.990516963114467217e+04
4.020599999999999952e+00 8.103273382390114421e+04
4.111900000000000333e+00 1.069439217625334131e+05
4.203299999999999592e+00 1.565916259510581731e+05
4.294699999999999740e+00 1.898874138035610667e+05
4.386099999999999888e+00 1.904665405382472090e+05
4.477400000000000269e+00 2.128919843431464687e+05
4.568800000000000416e+00 2.724475637032633531e+05
4.660199999999999676e+00 3.706097979856670718e+05
4.751599999999999824e+00 3.809174764670691802e+05
4.842900000000000205e+00 3.303664145939968876e+05
4.934300000000000352e+00 3.443484486404107884e+05
5.025699999999999612e+00 4.732631634015176096e+05
5.117099999999999760e+00 6.062592732469333569e+05
5.208400000000000141e+00 6.381557503920759773e+05
5.299800000000000288e+00 6.120647620434496785e+05
5.391200000000000436e+00 6.111748079564507352e+05
5.482599999999999696e+00 6.251014318139204988e+05
5.573900000000000077e+00 6.755959966473217355e+05
5.665300000000000225e+00 6.785821453007593518e+05
5.756700000000000372e+00 6.402826540869820165e+05
5.848099999999999632e+00 6.335277367585294414e+05
5.939499999999999780e+00 6.563342683365797857e+05
6.030800000000000161e+00 6.148493166991589824e+05
6.122200000000000308e+00 6.028162657468294492e+05
6.213599999999999568e+00 6.976368649430827936e+05
6.304999999999999716e+00 7.227253944593522465e+05
6.396300000000000097e+00 6.958958185025566490e+05
6.487700000000000244e+00 7.283635524099968607e+05
6.579100000000000392e+00 7.758018823708544951e+05
6.670499999999999652e+00 8.000637698849223088e+05
6.761800000000000033e+00 7.810173493653989863e+05
6.853200000000000180e+00 8.863909880969133228e+05
6.944600000000000328e+00 9.895591427771451417e+05
7.035999999999999588e+00 1.035095679166748654e+06
7.127299999999999969e+00 1.088520070888397517e+06
7.218700000000000117e+00 1.051924355574621586e+06
7.310100000000000264e+00 9.036316290722843260e+05
7.401500000000000412e+00 7.613145363746377407e+05
7.492799999999999905e+00 6.957935458348275861e+05
7.584200000000000053e+00 6.050209562449356308e+05
7.675600000000000200e+00 5.595429122469366994e+05
7.767000000000000348e+00 5.924104957913449034e+05
7.858399999999999608e+00 5.999176594663447468e+05
7.949699999999999989e+00 6.229783970465478487e+05
8.041100000000000136e+00 6.334124132922256831e+05
8.132500000000000284e+00 6.184664331973720109e+05
8.223900000000000432e+00 6.230345404449691996e+05
8.315200000000000813e+00 7.086630239420732250e+05
8.406599999999999184e+00 7.396864084520852193e+05
8.497999999999999332e+00 7.057283303161963122e+05
8.589399999999999480e+00 6.443919589694440365e+05
8.680699999999999861e+00 6.589378831253035460e+05
8.772100000000000009e+00 6.914628892759914743e+05
8.863500000000000156e+00 6.626417845921480330e+05
8.954900000000000304e+00 7.001432883989351103e+05
9.046200000000000685e+00 6.995722516730807256e+05
9.137600000000000833e+00 6.673176943118090276e+05
9.228999999999999204e+00 6.844285480561611475e+05
9.320399999999999352e+00 6.804138644365024520e+05
9.411699999999999733e+00 6.239600416057135444e+05
9.503099999999999881e+00 6.169760884449764853e+05
9.594500000000000028e+00 6.714319760815135669e+05
9.685900000000000176e+00 6.762477788628782146e+05
9.777300000000000324e+00 6.731535436110107694e+05
9.868600000000000705e+00 7.194575378688372439e+05
9.960000000000000853e+00 7.079417905186248245e+05
1.005139999999999922e+01 6.692307387302747229e+05
1.014279999999999937e+01 6.618825127679592697e+05
1.023409999999999975e+01 7.310025973261542385e+05
1.032549999999999990e+01 8.079952665001446148e+05
1.041690000000000005e+01 8.420183169403444044e+05
1.050830000000000020e+01 8.752448202660478419e+05
1.059960000000000058e+01 9.192476431973121362e+05
1.069100000000000072e+01 9.721185556063345866e+05
1.078240000000000087e+01 1.019657113017739262e+06
1.087379999999999924e+01 1.052997170842707157e+06
1.096509999999999962e+01 1.046328266014582128e+06
1.105649999999999977e+01 9.971151451578889973e+05
1.114789999999999992e+01 9.728129318984803976e+05
1.123930000000000007e+01 9.388769201558446512e+05
1.133060000000000045e+01 9.229002659883566666e+05
1.142200000000000060e+01 9.475366430620970204e+05
1.151340000000000074e+01 9.214247309662001207e+05
1.160479999999999912e+01 8.577204695460253861e+05
1.169619999999999926e+01 8.140295195323649095e+05
1.178749999999999964e+01 7.748643044474555645e+05
1.187889999999999979e+01 7.155600767991531175e+05
1.197029999999999994e+01 6.504260387864899822e+05
1.206170000000000009e+01 6.592561764696715400e+05
1.215300000000000047e+01 6.385773465896442067e+05
1.224440000000000062e+01 6.115851499151757453e+05
1.233580000000000076e+01 6.185599597397218458e+05
1.242719999999999914e+01 6.052239517652525101e+05
1.251849999999999952e+01 5.502429479645974934e+05
1.260989999999999966e+01 5.509294085259358399e+05
1.270129999999999981e+01 5.263046604549502954e+05
1.279269999999999996e+01 4.885271437720333925e+05
1.288400000000000034e+01 5.078050429669906734e+05
1.297540000000000049e+01 5.526505738884434104e+05
1.306680000000000064e+01 5.133607746608968009e+05
1.315820000000000078e+01 4.795607907091575325e+05
1.324959999999999916e+01 4.694270524501084001e+05
1.334089999999999954e+01 4.626302381150228903e+05
1.343229999999999968e+01 4.225186411166055477e+05
1.352369999999999983e+01 4.075137875522601535e+05
1.361509999999999998e+01 4.307274332096214639e+05
1.370640000000000036e+01 4.450243481147039565e+05
1.379780000000000051e+01 5.211741193863918306e+05
1.388920000000000066e+01 5.813091747781410813e+05
1.398060000000000080e+01 5.534927717421485577e+05
1.407189999999999941e+01 4.676218842425640323e+05
1.416329999999999956e+01 4.259477669233619235e+05
1.425469999999999970e+01 4.292181399543575244e+05
1.434609999999999985e+01 4.179730011646764469e+05
1.443740000000000023e+01 4.083683026738204062e+05
1.452880000000000038e+01 3.616880670124754542e+05
1.462020000000000053e+01 3.468014363583053346e+05
1.471160000000000068e+01 3.766359383725418011e+05
1.480289999999999928e+01 4.067426148638688028e+05
1.489429999999999943e+01 4.510793502796788234e+05
1.498569999999999958e+01 4.839491000953334151e+05
1.507709999999999972e+01 4.765780431974675157e+05
1.516849999999999987e+01 4.781279094883760554e+05
1.525980000000000025e+01 4.942863063175715506e+05
1.535120000000000040e+01 4.795487007105547818e+05
1.544260000000000055e+01 4.420701281843292527e+05
1.553400000000000070e+01 4.305958428036272526e+05
1.562529999999999930e+01 4.479815057868151343e+05
1.571669999999999945e+01 4.551377251180649619e+05
1.580809999999999960e+01 5.292496024310576031e+05
1.589949999999999974e+01 5.923534545727976365e+05
1.599080000000000013e+01 6.297535802131150849e+05
1.608220000000000027e+01 7.057620680466807680e+05
1.617360000000000042e+01 6.325565455394118326e+05
1.626500000000000057e+01 6.084244497188545065e+05
1.635630000000000095e+01 6.267759718565108487e+05
1.644770000000000110e+01 6.981055457608283032e+05
1.653910000000000124e+01 8.079561852844117675e+05
1.663050000000000139e+01 8.557895431488208706e+05
1.672180000000000177e+01 8.462385787573730340e+05
1.681319999999999837e+01 8.533700135343869915e+05
1.690459999999999852e+01 9.227927870146663627e+05
1.699599999999999866e+01 9.338032099930186523e+05
1.708739999999999881e+01 8.546883151565577136e+05
1.717869999999999919e+01 7.718873607984262053e+05
1.727009999999999934e+01 7.412018829996769782e+05
1.736149999999999949e+01 7.303259054967006668e+05
1.745289999999999964e+01 7.940199532553072786e+05
1.754420000000000002e+01 7.961557470820889575e+05
1.763560000000000016e+01 8.328569038013581885e+05
1.772700000000000031e+01 9.146405561147523113e+05
1.781840000000000046e+01 9.038931508755880641e+05
1.790970000000000084e+01 7.947520928749918239e+05
1.800110000000000099e+01 7.045336230625554454e+05
1.809250000000000114e+01 6.331626294446389657e+05
1.818390000000000128e+01 5.932134244437217712e+05
1.827520000000000167e+01 5.309423525614071405e+05
1.836659999999999826e+01 4.780713440697292681e+05
1.845799999999999841e+01 4.456356780671213055e+05
1.854939999999999856e+01 4.279006902607887168e+05
1.864069999999999894e+01 4.173833954654934350e+05
1.873209999999999908e+01 4.096545542003861046e+05
1.882349999999999923e+01 4.071265768431876786e+05
1.891489999999999938e+01 4.321966455308452132e+05
1.900629999999999953e+01 4.800314302749157650e+05
1.909759999999999991e+01 4.495690661291677970e+05
1.918900000000000006e+01 4.353439964896777528e+05
1.928040000000000020e+01 4.824584236954979715e+05
1.937180000000000035e+01 4.645852029042082722e+05
1.946310000000000073e+01 4.381801351979876054e+05
1.955450000000000088e+01 3.988600884381504147e+05
1.964590000000000103e+01 3.662629064605059102e+05
1.973730000000000118e+01 3.669562732960555004e+05
1.982860000000000156e+01 3.938981965165607398e+05
1.992000000000000171e+01 3.939967310373618966e+05
2.001139999999999830e+01 3.960005923386711511e+05
2.010279999999999845e+01 4.459376555885299458e+05
2.019409999999999883e+01 5.369517725670977961e+05
2.028549999999999898e+01 5.940039220971274190e+05
2.037689999999999912e+01 6.384772070126961917e+05
2.046829999999999927e+01 7.575394597703842446e+05
2.055959999999999965e+01 9.044798868752381532e+05
2.065099999999999980e+01 1.016895055716412375e+06
2.074239999999999995e+01 1.147862415294371545e+06
2.083380000000000010e+01 1.374647248817575863e+06
2.092520000000000024e+01 1.432421876209270209e+06
2.101650000000000063e+01 1.434002847950776573e+06
2.110790000000000077e+01 1.345167461859404342e+06
2.119930000000000092e+01 1.118999326653166441e+06
2.129070000000000107e+01 8.217075037148741540e+05
2.138200000000000145e+01 6.089984292869957862e+05
2.147340000000000160e+01 4.671336606003172346e+05
2.156480000000000175e+01 3.991937430930343107e+05
2.165619999999999834e+01 3.931591749520922313e+05
2.174749999999999872e+01 4.123667047939283075e+05
2.183889999999999887e+01 4.534478523568181554e+05
2.193029999999999902e+01 4.588182212272410397e+05
2.202169999999999916e+01 4.855641903952360735e+05
2.211299999999999955e+01 5.250561002355691744e+05
2.220439999999999969e+01 4.843931844760092208e+05
2.229579999999999984e+01 4.496181681363529060e+05
2.238719999999999999e+01 4.787203238323488622e+05
2.247850000000000037e+01 5.699934428303941386e+05
2.256990000000000052e+01 6.740135366896032356e+05
2.266130000000000067e+01 6.198608782462931704e+05
2.275270000000000081e+01 4.952888372076528613e+05
2.284410000000000096e+01 4.252926110065596877e+05
2.293540000000000134e+01 3.979713621917542769e+05
2.302680000000000149e+01 3.433582057265206822e+05
2.311820000000000164e+01 3.098649809863287956e+05
2.320959999999999823e+01 2.952763303186743869e+05
2.330089999999999861e+01 2.967171917122195009e+05
2.339229999999999876e+01 2.984493530722166179e+05
2.348369999999999891e+01 2.773282057084500557e+05
2.357509999999999906e+01 2.885586679629301652e+05
2.366639999999999944e+01 3.485718785255533294e+05
2.375779999999999959e+01 4.291356444487113040e+05
2.384919999999999973e+01 4.835891455455497489e+05
2.394059999999999988e+01 4.401845758399763727e+05
2.403190000000000026e+01 4.644913285383568727e+05
2.412330000000000041e+01 4.934131185802684049e+05
2.421470000000000056e+01 4.664693475018941099e+05
2.430610000000000070e+01 4.440428718066851143e+05
2.439740000000000109e+01 4.161706034698795411e+05
2.448880000000000123e+01 4.003169140444817021e+05
2.458020000000000138e+01 3.731169473911257228e+05
2.467160000000000153e+01 3.096150095556137967e+05
2.476300000000000168e+01 2.611614650123969768e+05
2.485429999999999851e+01 2.414292253234005184e+05
2.494569999999999865e+01 2.164701779298689216e+05
2.503709999999999880e+01 1.853786034290789976e+05
2.512849999999999895e+01 1.760436635689034301e+05
2.521979999999999933e+01 1.776724363984736556e+05
2.531119999999999948e+01 1.721726299411116925e+05
2.540259999999999962e+01 1.839224153108155588e+05
2.549399999999999977e+01 1.810780857304800011e+05
2.558530000000000015e+01 1.603148135790420347e+05
2.567670000000000030e+01 1.455378472969199065e+05
2.576810000000000045e+01 1.264539741657674749e+05
2.585950000000000060e+01 1.216621996767065721e+05
2.595080000000000098e+01 1.248011416155169863e+05
2.604220000000000113e+01 1.303158088143580535e+05
2.613360000000000127e+01 1.169854441222670721e+05
2.622500000000000142e+01 1.086942495994015189e+05
2.631629999999999825e+01 1.000422261836756079e+05
2.640769999999999840e+01 9.813061912694069906e+04
2.649909999999999854e+01 9.596683365067724662e+04
2.659049999999999869e+01 9.850403563036122068e+04
2.668189999999999884e+01 1.018168478262693825e+05
2.677319999999999922e+01 9.894465499537916912e+04
2.686459999999999937e+01 1.073171781394581485e+05
2.695599999999999952e+01 1.080053170676790178e+05
2.704739999999999966e+01 1.071852015357037744e+05
2.713870000000000005e+01 1.060151692326800985e+05
2.723010000000000019e+01 1.227248314461549016e+05
2.732150000000000034e+01 1.383903660230008827e+05
2.741290000000000049e+01 1.284625318836352380e+05
2.750420000000000087e+01 1.208574953809418948e+05
2.759560000000000102e+01 1.240120237838304456e+05
2.768700000000000117e+01 1.293479489716210664e+05
2.777840000000000131e+01 1.248425457355275576e+05
2.786970000000000169e+01 1.264327949984323204e+05
2.796109999999999829e+01 1.331497243774423550e+05
2.805249999999999844e+01 1.270572520852130256e+05
2.814389999999999858e+01 1.208728343145944382e+05
2.823519999999999897e+01 1.163288642793400795e+05
2.832659999999999911e+01 1.125490156783969578e+05
2.841799999999999926e+01 1.035270302586199541e+05
2.850939999999999941e+01 9.346840043414982210e+04
2.860079999999999956e+01 9.069547661649044312e+04
2.869209999999999994e+01 8.357481435826868983e+04
2.878350000000000009e+01 8.390469528036477277e+04
2.887490000000000023e+01 9.204038817535703129e+04
2.896630000000000038e+01 8.816394380929955514e+04
2.905760000000000076e+01 8.798247445751825580e+04
2.914900000000000091e+01 8.348748206516828213e+04
2.924040000000000106e+01 7.956269034629536327e+04
2.933180000000000121e+01 7.740413034202388371e+04
2.942310000000000159e+01 7.260981573158761603e+04
2.951450000000000173e+01 6.912378857824945590e+04
2.960589999999999833e+01 6.832717021337745246e+04
2.969729999999999848e+01 6.207596449881028821e+04
2.978859999999999886e+01 5.687141593500661838e+04
2.987999999999999901e+01 6.180351874487604073e+04
2.997139999999999915e+01 7.322360581217006256e+04
3.006279999999999930e+01 8.174669015499582747e+04
3.015409999999999968e+01 8.571776389941787056e+04
3.024549999999999983e+01 8.061134382631717017e+04
3.033689999999999998e+01 7.583183746071023052e+04
3.042830000000000013e+01 7.137854910255082359e+04
3.051970000000000027e+01 6.556750825275250827e+04
3.061100000000000065e+01 6.470018644538600347e+04
3.070240000000000080e+01 6.645290476334806590e+04
3.079380000000000095e+01 6.268812270936734421e+04
3.088520000000000110e+01 5.755693491735672433e+04
3.097650000000000148e+01 5.488475644082255167e+04
3.106790000000000163e+01 5.528782094765502552e+04
3.115930000000000177e+01 5.540339616369584110e+04
3.125069999999999837e+01 5.057845251167274546e+04
3.134199999999999875e+01 5.258174949266931071e+04
3.143339999999999890e+01 5.372133263596460893e+04
3.152479999999999905e+01 5.873939738583954750e+04
3.161619999999999919e+01 5.639066942071797530e+04
3.170749999999999957e+01 5.267296359693592240e+04
3.179889999999999972e+01 4.887135033668757387e+04
3.189029999999999987e+01 5.108160356081396458e+04
3.198170000000000002e+01 5.279343385942391615e+04
3.207300000000000040e+01 5.638424709947146039e+04
3.216440000000000055e+01 5.580024009050409222e+04
3.225580000000000069e+01 5.478188501055777306e+04
3.234720000000000084e+01 5.690312037599063478e+04
3.243860000000000099e+01 5.742586555303195200e+04
3.252989999999999782e+01 5.532442310481418826e+04
3.262129999999999797e+01 5.577363127563794114e+04
3.271269999999999811e+01 5.755463749828084838e+04
3.280409999999999826e+01 5.862760761114025809e+04
3.289540000000000219e+01 5.841764855417976651e+04
3.298680000000000234e+01 5.649722033640230802e+04
3.307820000000000249e+01 5.549385501375440799e+04
3.316960000000000264e+01 5.278524061970751791e+04
3.326089999999999947e+01 5.207662257782532834e+04
3.335229999999999961e+01 5.651907952437875065e+04
3.344369999999999976e+01 5.556502903657904972e+04
3.353509999999999991e+01 5.359959170342233847e+04
3.362639999999999674e+01 5.351249221037077950e+04
3.371779999999999688e+01 5.423532010245483252e+04
3.380919999999999703e+01 4.979167978794747614e+04
3.390059999999999718e+01 4.815441175474775082e+04
3.399190000000000111e+01 4.593143473048390297e+04
3.408330000000000126e+01 4.698232329018623568e+04
3.417470000000000141e+01 4.380247190057946864e+04
3.426610000000000156e+01 4.539894552748496790e+04
3.435750000000000171e+01 4.670000224697451631e+04
3.444879999999999853e+01 4.082454622475584620e+04
3.454019999999999868e+01 3.738412492700218718e+04
3.463159999999999883e+01 3.508840745304107986e+04
3.472299999999999898e+01 3.589059400044415088e+04
3.481430000000000291e+01 3.788381820057575533e+04
3.490570000000000306e+01 3.990182955756332376e+04
3.499710000000000321e+01 4.058922120263882971e+04
3.508850000000000335e+01 3.772893472563901742e+04
3.517980000000000018e+01 3.932362808037574723e+04
3.527120000000000033e+01 4.392584941755836189e+04
3.536260000000000048e+01 4.346042568042849598e+04
3.545400000000000063e+01 4.354131394626668771e+04
3.554529999999999745e+01 4.683577733696355426e+04
3.563669999999999760e+01 4.283236582022089715e+04
3.572809999999999775e+01 3.814396234139004082e+04
3.581949999999999790e+01 3.661310183981028968e+04
3.591080000000000183e+01 3.448947906757940655e+04
3.600220000000000198e+01 3.174320166170238008e+04
3.609360000000000213e+01 3.097323905363971426e+04
3.618500000000000227e+01 3.261917634390215608e+04
3.627640000000000242e+01 3.287869034861685213e+04
3.636769999999999925e+01 3.354041187725176133e+04
