# energy(eV) alpha
0.000000000000000000e+00 0.000000000000000000e+00
1.029999999999999943e-01 2.186200316483551287e+00
2.059999999999999887e-01 8.743079719672065764e+00
3.089000000000000079e-01 1.965923159677110021e+01
4.118999999999999884e-01 3.493695715430334303e+01
5.149000000000000243e-01 5.456045935423383497e+01
6.179000000000000048e-01 7.851497391504730672e+01
7.208999999999999853e-01 1.089598622289789347e+02
8.237999999999999767e-01 1.418056640222590090e+02
9.267999999999999572e-01 1.817234562297944649e+02
1.029800000000000049e+00 2.264861732157212657e+02
1.132800000000000029e+00 2.760569401931133484e+02
1.235700000000000021e+00 3.340745698041151286e+02
1.338700000000000001e+00 3.974361738350759197e+02
1.441699999999999982e+00 4.660530907838157759e+02
1.544699999999999962e+00 5.444753705988753154e+02
1.647699999999999942e+00 6.335249433019869230e+02
1.750599999999999934e+00 7.287465950058998487e+02
1.853599999999999914e+00 8.356078374236275295e+02
1.956599999999999895e+00 9.548161044897182137e+02
2.059600000000000097e+00 1.087105174219788296e+03
2.162599999999999856e+00 1.226786985500843912e+03
2.265499999999999847e+00 1.386879763714873434e+03
2.368500000000000050e+00 1.568947402154057500e+03
2.471499999999999808e+00 1.774285617457558601e+03
2.574500000000000011e+00 1.996712522033778896e+03
2.677400000000000002e+00 2.259634118510568896e+03
2.780400000000000205e+00 2.549892946339256468e+03
2.883399999999999963e+00 2.892911789521055653e+03
2.986400000000000166e+00 3.299976734468329141e+03
3.089399999999999924e+00 3.782865391643446856e+03
3.192299999999999915e+00 4.380336317253657398e+03
3.295300000000000118e+00 5.152225352308265428e+03
3.398299999999999876e+00 6.244968103281275944e+03
3.501300000000000079e+00 7.983889691106699502e+03
3.604299999999999837e+00 1.149494723230352247e+04
3.707199999999999829e+00 1.794569108536543354e+04
3.810200000000000031e+00 2.333893623031683819e+04
3.913199999999999790e+00 3.692028116452053655e+04
4.016200000000000436e+00 3.684053520869616477e+04
4.119200000000000195e+00 5.096604238730461657e+04
4.222100000000000186e+00 5.504256932143165614e+04
4.325099999999999945e+00 6.297386007039640390e+04
4.428099999999999703e+00 7.424496168227957969e+04
4.531100000000000350e+00 8.064144379176110670e+04
4.634000000000000341e+00 9.250678208268118033e+04
4.737000000000000099e+00 1.074577128906187863e+05
4.839999999999999858e+00 1.349682177573458466e+05
4.942999999999999616e+00 1.213308288420432800e+05
5.046000000000000263e+00 1.182460550172475778e+05
5.148900000000000254e+00 1.499811226473681745e+05
5.251900000000000013e+00 1.661868241915736289e+05
5.354899999999999771e+00 2.022297481860728294e+05
5.457900000000000418e+00 2.334630705926186347e+05
5.560900000000000176e+00 3.336551993588220794e+05
5.663800000000000168e+00 4.538637449549536104e+05
5.766799999999999926e+00 4.342947783927569981e+05
5.869799999999999685e+00 4.440416011928853113e+05
5.972800000000000331e+00 5.862956024870447582e+05
6.075700000000000323e+00 6.514630724378091982e+05
6.178700000000000081e+00 7.074037950955859851e+05
6.281699999999999839e+00 7.205962341027794173e+05
6.384699999999999598e+00 6.611068660750454292e+05
6.487700000000000244e+00 6.455982769009781769e+05
6.590600000000000236e+00 6.875317671268039849e+05
6.693599999999999994e+00 6.546232179765201872e+05
6.796599999999999753e+00 6.604728909483944299e+05
6.899600000000000399e+00 6.872388039905354381e+05
7.002600000000000158e+00 6.592276683868743712e+05
7.105500000000000149e+00 6.113933034505664837e+05
7.208499999999999908e+00 6.088252361641298048e+05
7.311499999999999666e+00 6.001362980766765540e+05
7.414500000000000313e+00 6.109377818824548740e+05
7.517500000000000071e+00 6.378694152605411364e+05
7.620400000000000063e+00 7.046056489597342443e+05
7.723399999999999821e+00 7.583154369027045323e+05
7.826399999999999579e+00 7.996600377366929315e+05
7.929400000000000226e+00 9.032410531980110100e+05
8.032299999999999329e+00 9.201632673031358281e+05
8.135300000000000864e+00 9.184732658408246934e+05
8.238300000000000622e+00 9.140755994756470900e+05
8.341300000000000381e+00 9.256827110017620726e+05
8.444300000000000139e+00 8.654096334535673959e+05
8.547200000000000131e+00 7.788496581417535199e+05
8.650199999999999889e+00 6.694077850958136842e+05
8.753199999999999648e+00 5.876086150271951919e+05
8.856199999999999406e+00 5.505159245191024384e+05
8.959199999999999164e+00 5.381009741089146119e+05
9.062099999999999156e+00 4.865827125625765766e+05
9.165100000000000691e+00 4.654207917423960753e+05
9.268100000000000449e+00 5.068522353005486657e+05
9.371100000000000207e+00 4.888054212107830681e+05
9.474000000000000199e+00 4.725515945691490779e+05
9.576999999999999957e+00 5.178556284151332802e+05
9.679999999999999716e+00 5.660872263276339509e+05
9.782999999999999474e+00 6.167495506731823552e+05
9.885999999999999233e+00 5.566115229901054408e+05
9.988899999999999224e+00 5.759848703469474567e+05
1.009190000000000076e+01 6.354568320099647390e+05
1.019490000000000052e+01 6.506017960060507758e+05
1.029790000000000028e+01 6.230183234186088666e+05
1.040090000000000003e+01 6.905623089674043003e+05
1.050380000000000003e+01 6.976282994494138984e+05
1.060679999999999978e+01 6.480225563231804408e+05
1.070979999999999954e+01 6.208845241204369813e+05
1.081279999999999930e+01 7.313074639126054244e+05
1.091580000000000084e+01 7.183403976940787397e+05
1.101870000000000083e+01 6.112798903592497809e+05
1.112170000000000059e+01 6.008527867349775042e+05
1.122470000000000034e+01 5.849866787111011799e+05
1.132770000000000010e+01 5.843877834604071686e+05
1.143060000000000009e+01 6.512074925798415206e+05
1.153359999999999985e+01 5.967567085817861371e+05
1.163659999999999961e+01 6.044572998968457105e+05
1.173959999999999937e+01 5.555559956469786121e+05
1.184259999999999913e+01 5.697844197499940637e+05
1.194549999999999912e+01 5.892356457844715333e+05
1.204850000000000065e+01 5.880648522086470621e+05
1.215150000000000041e+01 6.472211991008748300e+05
1.225450000000000017e+01 7.414064312445685500e+05
1.235749999999999993e+01 8.325783268124288879e+05
1.246039999999999992e+01 8.896075809539647307e+05
1.256339999999999968e+01 8.801747773836398264e+05
1.266639999999999944e+01 9.405555571908047423e+05
1.276939999999999920e+01 9.147869517431672430e+05
1.287229999999999919e+01 9.805543417690030765e+05
1.297530000000000072e+01 9.864178887417466613e+05
1.307830000000000048e+01 9.701772491863056784e+05
1.318130000000000024e+01 9.042158062831148272e+05
1.328430000000000000e+01 8.310380471581048332e+05
1.338719999999999999e+01 7.392040248341161059e+05
1.349019999999999975e+01 6.572500345618030988e+05
1.359319999999999951e+01 6.180061915075794095e+05
1.369619999999999926e+01 5.935102755627782317e+05
1.379920000000000080e+01 5.408474818322315114e+05
1.390210000000000079e+01 5.458464026246085996e+05
1.400510000000000055e+01 5.234655937453568331e+05
1.410810000000000031e+01 4.984032389971945086e+05
1.421110000000000007e+01 5.129339426264552167e+05
1.431409999999999982e+01 4.975220050430806004e+05
1.441699999999999982e+01 4.779546471662638942e+05
1.451999999999999957e+01 4.778137236278069904e+05
1.462299999999999933e+01 4.886077621378768818e+05
1.472600000000000087e+01 4.504114793535033823e+05
1.482890000000000086e+01 4.612733614819316426e+05
1.493190000000000062e+01 5.225238159616655903e+05
1.503490000000000038e+01 5.198705476665877504e+05
1.513790000000000013e+01 5.147910237668159534e+05
1.524089999999999989e+01 5.168498039385786979e+05
1.534379999999999988e+01 4.956283028320144513e+05
1.544679999999999964e+01 5.083856086271568201e+05
1.554979999999999940e+01 5.356682803738163784e+05
1.565279999999999916e+01 6.156025158221788006e+05
1.575580000000000069e+01 7.508661261426481651e+05
1.585870000000000068e+01 8.782128869935332332e+05
1.596170000000000044e+01 1.075084409664808074e+06
1.606469999999999843e+01 1.374153857382460730e+06
1.616769999999999996e+01 1.391746951711636735e+06
1.627060000000000173e+01 1.349575634311911184e+06
1.637359999999999971e+01 1.382763689103164012e+06
1.647660000000000124e+01 1.451879918058633339e+06
1.657959999999999923e+01 1.396197582127589500e+06
1.668260000000000076e+01 1.309995910534868250e+06
1.678549999999999898e+01 1.250434936814024346e+06
1.688850000000000051e+01 1.105326288065970642e+06
1.699149999999999849e+01 1.059432257534555160e+06
1.709450000000000003e+01 1.020033902840973809e+06
1.719750000000000156e+01 1.017583700523113017e+06
1.730039999999999978e+01 1.014815274307800573e+06
1.740340000000000131e+01 1.017367250920089078e+06
1.750639999999999930e+01 9.435362100656476105e+05
1.760940000000000083e+01 8.428587709405482747e+05
1.771229999999999905e+01 8.711980633782247314e+05
1.781530000000000058e+01 9.224139659947232576e+05
1.791829999999999856e+01 9.220037736736460356e+05
1.802130000000000010e+01 9.056919460171626415e+05
1.812430000000000163e+01 9.861612704961432610e+05
1.822719999999999985e+01 9.809156299572725547e+05
1.833020000000000138e+01 9.729580493209911510e+05
1.843319999999999936e+01 8.985758585443145130e+05
1.853620000000000090e+01 7.425582731972992187e+05
1.863919999999999888e+01 6.046678839414989343e+05
1.874210000000000065e+01 5.728574932489864295e+05
1.884509999999999863e+01 6.578048411186217563e+05
1.894810000000000016e+01 8.105696032412021887e+05
1.905110000000000170e+01 7.618881702298402088e+05
1.915409999999999968e+01 6.631350061656488106e+05
1.925700000000000145e+01 6.737103147988966666e+05
1.935999999999999943e+01 6.867464302527310792e+05
1.946300000000000097e+01 6.435116651739064837e+05
1.956599999999999895e+01 6.341395426555463346e+05
1.966890000000000072e+01 6.098867167921202490e+05
1.977189999999999870e+01 5.874839102876562392e+05
1.987490000000000023e+01 6.144843885716678342e+05
1.997790000000000177e+01 6.198224796645436436e+05
2.008089999999999975e+01 6.278341367004041094e+05
2.018380000000000152e+01 6.727015269783890108e+05
2.028679999999999950e+01 6.958634311878370354e+05
2.038980000000000103e+01 7.464400728857727954e+05
2.049279999999999902e+01 8.927268307478574570e+05
2.059580000000000055e+01 9.623318467074596556e+05
2.069869999999999877e+01 1.101553245599409798e+06
2.080170000000000030e+01 1.295725841791297076e+06
2.090469999999999828e+01 1.503287142377189826e+06
2.100769999999999982e+01 1.568080550800360506e+06
2.111060000000000159e+01 1.533955619160839356e+06
2.121359999999999957e+01 1.614932169595152605e+06
2.131660000000000110e+01 1.689395295285723638e+06
2.141959999999999908e+01 1.544725988042358775e+06
2.152260000000000062e+01 1.282389600410473067e+06
2.162549999999999883e+01 9.989636180205391720e+05
2.172850000000000037e+01 8.200455045739660272e+05
2.183149999999999835e+01 7.119024074987780768e+05
2.193449999999999989e+01 5.998633853667905787e+05
2.203750000000000142e+01 5.229270712431818247e+05
2.214039999999999964e+01 4.770480147407275508e+05
2.224340000000000117e+01 4.425891087790707243e+05
2.234639999999999915e+01 4.503985071551721776e+05
2.244940000000000069e+01 4.716169582248094375e+05
2.255239999999999867e+01 5.391892223211505916e+05
2.265530000000000044e+01 5.637012086799399694e+05
2.275829999999999842e+01 5.732387185071673011e+05
2.286129999999999995e+01 6.362394686226928607e+05
2.296430000000000149e+01 5.867772697159680538e+05
2.306719999999999970e+01 6.060705734269968234e+05
2.317020000000000124e+01 7.500526386678531999e+05
2.327319999999999922e+01 8.580713348592455732e+05
2.337620000000000076e+01 7.543874120209353277e+05
2.347919999999999874e+01 7.024463442499972880e+05
2.358210000000000051e+01 5.842989844414108666e+05
2.368509999999999849e+01 4.870348083170009777e+05
2.378810000000000002e+01 4.735807330194466049e+05
2.389110000000000156e+01 4.146838015034050331e+05
2.399409999999999954e+01 3.926844869635103969e+05
2.409700000000000131e+01 3.834871644691475085e+05
2.419999999999999929e+01 3.663079004310651217e+05
2.430300000000000082e+01 4.152334851628883043e+05
2.440599999999999881e+01 3.953239580584158539e+05
2.450890000000000057e+01 3.607769477170289611e+05
2.461189999999999856e+01 3.651171365865435801e+05
2.471490000000000009e+01 3.915121950198704144e+05
2.481790000000000163e+01 4.717394878845272469e+05
2.492089999999999961e+01 4.923775137960527791e+05
2.502380000000000138e+01 4.173947560113956570e+05
2.512679999999999936e+01 4.191280105412093108e+05
2.522980000000000089e+01 4.577992882822774700e+05
2.533279999999999887e+01 4.962264497006073943e+05
2.543580000000000041e+01 5.090766131715757656e+05
2.553869999999999862e+01 4.560269330734834657e+05
2.564170000000000016e+01 4.331786073104377137e+05
2.574470000000000169e+01 3.991004045720878639e+05
2.584769999999999968e+01 3.553954419793326524e+05
2.595070000000000121e+01 3.499692403491364093e+05
2.605359999999999943e+01 3.146101391233271570e+05
2.615660000000000096e+01 2.579533836900014430e+05
2.625959999999999894e+01 2.346657719883421669e+05
2.636260000000000048e+01 2.397935393233866489e+05
2.646549999999999869e+01 2.288447892894294928e+05
2.656850000000000023e+01 1.994193188804796664e+05
2.667150000000000176e+01 1.965805807017608895e+05
2.677449999999999974e+01 2.168986282115626673e+05
2.687750000000000128e+01 2.191270355829865730e+05
2.698039999999999949e+01 2.089979566410442058e+05
2.708340000000000103e+01 1.883345316748249461e+05
2.718639999999999901e+01 1.812480950511060655e+05
2.728940000000000055e+01 1.646025570736891823e+05
2.739239999999999853e+01 1.526150961264310463e+05
2.749530000000000030e+01 1.418841304158745916e+05
2.759829999999999828e+01 1.307574845709754154e+05
2.770129999999999981e+01 1.298733451109613525e+05
2.780430000000000135e+01 1.304228899550294736e+05
2.790719999999999956e+01 1.144255090905390098e+05
2.801020000000000110e+01 1.164723097876819666e+05
2.811319999999999908e+01 1.317248874580568227e+05
2.821620000000000061e+01 1.330839757213491248e+05
2.831919999999999860e+01 1.257259826649846800e+05
2.842210000000000036e+01 1.219460486093222426e+05
2.852509999999999835e+01 1.334285803979044140e+05
2.862809999999999988e+01 1.586087422663837206e+05
2.873110000000000142e+01 1.604686260873957071e+05
2.883409999999999940e+01 1.463062860163511941e+05
2.893700000000000117e+01 1.410157407580196450e+05
2.903999999999999915e+01 1.412908511872035742e+05
2.914300000000000068e+01 1.353041887741782703e+05
2.924599999999999866e+01 1.298569958022799256e+05
2.934900000000000020e+01 1.302354779381126573e+05
2.945189999999999841e+01 1.135754031811709574e+05
2.955489999999999995e+01 1.173649259413022519e+05
2.965790000000000148e+01 1.216347452124957927e+05
2.976089999999999947e+01 1.267782781439960963e+05
2.986380000000000123e+01 1.311961664553484006e+05
2.996679999999999922e+01 1.351566412458531267e+05
3.006980000000000075e+01 1.219809194581349147e+05
3.017279999999999873e+01 1.018836912502604828e+05
3.027580000000000027e+01 9.880510378159425454e+04
3.037869999999999848e+01 9.919479282432470063e+04
3.048170000000000002e+01 9.741977688185658189e+04
3.058470000000000155e+01 9.658302226269654057e+04
3.068769999999999953e+01 9.412064035599536146e+04
3.079070000000000107e+01 9.058475363327698142e+04
3.089359999999999928e+01 9.446794492012161936e+04
3.099660000000000082e+01 8.604687949764833320e+04
3.109959999999999880e+01 8.517104070965462597e+04
3.120260000000000034e+01 9.087893148276524153e+04
3.130549999999999855e+01 8.825675886704059667e+04
3.140850000000000009e+01 8.888758915023585723e+04
3.151150000000000162e+01 8.938770934302415117e+04
3.161449999999999960e+01 9.003917081470749690e+04
3.171750000000000114e+01 9.430671813578400179e+04
3.182039999999999935e+01 9.733439482393923390e+04
3.192340000000000089e+01 8.853321354726288700e+04
3.202640000000000242e+01 8.466325699575293402e+04
3.212939999999999685e+01 9.121294182078151789e+04
3.223239999999999839e+01 1.029989416615146620e+05
3.233529999999999660e+01 1.094147232532976195e+05
3.243829999999999814e+01 9.970017420295425109e+04
3.254129999999999967e+01 9.093098508529245737e+04
3.264430000000000121e+01 8.080919939131180581e+04
3.274730000000000274e+01 7.784571625578968087e+04
3.285020000000000095e+01 8.286657434500899399e+04
3.295320000000000249e+01 8.772188331072985602e+04
3.305619999999999692e+01 8.808408375347136462e+04
3.315919999999999845e+01 8.236000013122161909e+04
3.326209999999999667e+01 7.667712674200342735e+04
3.336509999999999820e+01 7.246825404694292229e+04
3.346809999999999974e+01 7.237675922534687561e+04
3.357110000000000127e+01 6.979687983318349870e+04
3.367410000000000281e+01 6.558203048076400592e+04
3.377700000000000102e+01 6.448614943504057737e+04
3.388000000000000256e+01 6.100963799145646044e+04
3.398299999999999699e+01 6.220904122513355833e+04
3.408599999999999852e+01 6.538875241997625562e+04
3.418900000000000006e+01 7.428594666149292607e+04
3.429189999999999827e+01 6.769648134340479737e+04
3.439489999999999981e+01 6.043169938276198081e+04
3.449790000000000134e+01 6.025467837192166917e+04
3.460090000000000288e+01 6.188930276082112687e+04
3.470380000000000109e+01 6.740818483338445367e+04
3.480680000000000263e+01 6.478016025009720761e+04
3.490979999999999706e+01 6.914599538889939140e+04
3.501279999999999859e+01 6.395695652649379190e+04
3.511580000000000013e+01 6.183943424303770735e+04
3.521869999999999834e+01 6.156716433539887657e+04
3.532169999999999987e+01 5.786679532268993353e+04
3.542470000000000141e+01 5.466949366734045907e+04
3.552770000000000294e+01 5.831830474472121568e+04
3.563069999999999737e+01 6.514283241225040547e+04
3.573360000000000269e+01 6.578612388843284862e+04
3.583659999999999712e+01 6.334951250025398622e+04
3.593959999999999866e+01 5.796317888379342185e+04
3.604260000000000019e+01 5.759727818489779020e+04
3.614560000000000173e+01 6.185705106547484320e+04
3.624849999999999994e+01 5.503417046774847404e+04
3.635150000000000148e+01 5.381092941709455772e+04
3.645450000000000301e+01 5.942321098495417391e+04
3.655749999999999744e+01 6.497442986736074090e+04
3.666040000000000276e+01 6.481207596850382834e+04
3.676339999999999719e+01 6.065009030574966164e+04
3.686639999999999873e+01 5.719851102834743506e+04
3.696940000000000026e+01 6.215783560126269731e+04
3.707240000000000180e+01 5.506695134451175545e+04
3.717530000000000001e+01 4.840642890748812351e+04
3.727830000000000155e+01 5.034111954932538356e+04
3.738130000000000308e+01 5.109847998582336004e+04
3.748429999999999751e+01 4.911295992219885375e+04
3.758729999999999905e+01 4.689449327834262658e+04
3.769019999999999726e+01 4.421270444188574766e+04
3.779319999999999879e+01 4.577043929068633588e+04
3.789620000000000033e+01 4.546195281821193203e+04
3.799920000000000186e+01 4.366333475285361783e+04
3.810210000000000008e+01 3.905980437428856385e+04
3.820510000000000161e+01 3.546469763214487466e+04
3.830810000000000315e+01 3.722179466306164977e+04
3.841109999999999758e+01 3.665399618271175859e+04
3.851409999999999911e+01 3.672113195077331329e+04
3.861699999999999733e+01 3.616022920491379045e+04
3.871999999999999886e+01 3.255668079292755647e+04
3.882300000000000040e+01 3.216826933977119552e+04
3.892600000000000193e+01 3.157007064540465944e+04
3.902900000000000347e+01 3.095678174888203648e+04
3.913190000000000168e+01 3.425289347460732097e+04
3.923490000000000322e+01 3.563006861591427878e+04
3.933789999999999765e+01 3.613119061973234784e+04
3.944089999999999918e+01 3.860074343778070033e+04
3.954390000000000072e+01 4.067161010209614324e+04
3.964679999999999893e+01 3.968140574193761131e+04
3.974980000000000047e+01 3.890074814214726939e+04
3.985280000000000200e+01 3.611582426955281699e+04
3.995580000000000354e+01 3.618121803964433639e+04
4.005870000000000175e+01 3.492254068599861785e+04
4.016170000000000329e+01 3.564750030328144203e+04
4.026469999999999771e+01 3.661593225300713675e+04
4.036769999999999925e+01 3.537064128846059612e+04
4.047070000000000078e+01 3.320923545461128379e+04
4.057359999999999900e+01 3.214048112828663216e+04
4.067660000000000053e+01 3.331334582141165447e+04
4.077960000000000207e+01 3.337023497296703863e+04
4.088259999999999650e+01 3.634112476745429012e+04
4.098559999999999803e+01 4.004468328542574454e+04
